 LCModel (Version 6.3-1L) Copyright: S.W. Provencher.          Ref.: Magn. Reson. Med. 30:672-679 (1993).                
 Summed_Averaged_TE52_MM
 Data of: Department of High-Field Magnetic Resonance, Max Planck Institute for Biological Cybernetics, Tuebingen, Germany
 24-June-2020  12:50
 16 lines in following concentration table = NCONC+1
    Conc.  %SD   /Cr    Metabolite                                         
 3.62E-09   7%   1.000 Cr                                                  
    0.832   2% 2.3E+08 MM09                                                
    0.454   4% 1.3E+08 MM12                                                
    0.696   3% 1.9E+08 MM14                                                
    0.308   5% 8.5E+07 MM17                                                
    0.598   3% 1.7E+08 MM20                                                
    0.434   4% 1.2E+08 MM22                                                
    0.105  19% 2.9E+07 MM26                                                
    0.132  14% 3.6E+07 MM27                                                
    0.185   7% 5.1E+07 MM30                                                
    0.116  12% 3.2E+07 MM32                                                
 2.10E-02  52% 5.8E+06 MM36                                                
    0.178   8% 4.9E+07 MM37                                                
    0.433   3% 1.2E+08 MM38                                                
    0.000 999%   0.000 MM40                                                
   6 lines in following misc. output table
  FWHM = 0.027 ppm    S/N =   9                                            
  Data shift = 0.000 ppm                                                   
  Ph:   0 deg       0.0 deg/ppm                                            
  alphaB,S = 2.5E+02,   6.1E+00                                            
    6 spline knots.   Ns = 5(1)                                            
  ( 5) 4 infls.   ( 3) 3 extrs.                                            
 1883 points on ppm-axis = NY
      8.200000     8.197556     8.195113     8.192670     8.190227     8.187783     8.185340     8.182897     8.180453     8.178010
      8.175567     8.173123     8.170680     8.168237     8.165793     8.163350     8.160907     8.158463     8.156020     8.153577
      8.151134     8.148690     8.146247     8.143804     8.141360     8.138917     8.136474     8.134030     8.131587     8.129144
      8.126700     8.124257     8.121814     8.119370     8.116927     8.114484     8.112041     8.109597     8.107154     8.104711
      8.102267     8.099824     8.097381     8.094937     8.092494     8.090051     8.087607     8.085164     8.082721     8.080277
      8.077834     8.075391     8.072948     8.070504     8.068061     8.065618     8.063174     8.060731     8.058288     8.055844
      8.053401     8.050958     8.048514     8.046071     8.043628     8.041184     8.038741     8.036298     8.033854     8.031411
      8.028968     8.026525     8.024081     8.021638     8.019195     8.016751     8.014308     8.011865     8.009421     8.006978
      8.004535     8.002091     7.999648     7.997205     7.994761     7.992318     7.989875     7.987432     7.984988     7.982545
      7.980102     7.977658     7.975215     7.972772     7.970328     7.967885     7.965442     7.962998     7.960555     7.958112
      7.955668     7.953225     7.950782     7.948339     7.945895     7.943452     7.941009     7.938565     7.936122     7.933679
      7.931235     7.928792     7.926349     7.923905     7.921462     7.919019     7.916575     7.914132     7.911689     7.909245
      7.906802     7.904359     7.901916     7.899472     7.897029     7.894586     7.892142     7.889699     7.887256     7.884812
      7.882369     7.879926     7.877482     7.875039     7.872596     7.870152     7.867709     7.865266     7.862823     7.860379
      7.857936     7.855493     7.853049     7.850606     7.848163     7.845719     7.843276     7.840833     7.838389     7.835946
      7.833503     7.831059     7.828616     7.826173     7.823730     7.821286     7.818843     7.816400     7.813956     7.811513
      7.809070     7.806626     7.804183     7.801740     7.799296     7.796853     7.794410     7.791966     7.789523     7.787080
      7.784636     7.782193     7.779750     7.777307     7.774863     7.772420     7.769977     7.767533     7.765090     7.762647
      7.760203     7.757760     7.755317     7.752873     7.750430     7.747987     7.745543     7.743100     7.740657     7.738214
      7.735770     7.733327     7.730884     7.728440     7.725997     7.723554     7.721110     7.718667     7.716224     7.713780
      7.711337     7.708894     7.706450     7.704007     7.701564     7.699121     7.696677     7.694234     7.691791     7.689347
      7.686904     7.684461     7.682017     7.679574     7.677131     7.674687     7.672244     7.669801     7.667357     7.664914
      7.662471     7.660028     7.657584     7.655141     7.652698     7.650254     7.647811     7.645368     7.642924     7.640481
      7.638038     7.635594     7.633151     7.630708     7.628264     7.625821     7.623378     7.620934     7.618491     7.616048
      7.613605     7.611161     7.608718     7.606275     7.603831     7.601388     4.197852     4.195409     4.192966     4.190522
      4.188079     4.185636     4.183192     4.180749     4.178306     4.175862     4.173419     4.170976     4.168532     4.166089
      4.163646     4.161202     4.158759     4.156316     4.153872     4.151429     4.148986     4.146543     4.144099     4.141656
      4.139213     4.136769     4.134326     4.131883     4.129439     4.126996     4.124553     4.122109     4.119666     4.117223
      4.114779     4.112336     4.109893     4.107450     4.105006     4.102563     4.100120     4.097676     4.095233     4.092790
      4.090346     4.087903     4.085460     4.083016     4.080573     4.078130     4.075686     4.073243     4.070800     4.068357
      4.065913     4.063470     4.061027     4.058583     4.056140     4.053697     4.051253     4.048810     4.046367     4.043923
      4.041480     4.039037     4.036593     4.034150     4.031707     4.029263     4.026820     4.024377     4.021934     4.019490
      4.017047     4.014604     4.012160     4.009717     4.007274     4.004830     4.002387     3.999944     3.997501     3.995058
      3.992615     3.990172     3.987729     3.985286     3.982842     3.980399     3.977956     3.975513     3.973070     3.970627
      3.968184     3.965741     3.963298     3.960855     3.958412     3.955969     3.953526     3.951082     3.948639     3.946196
      3.943753     3.941310     3.938867     3.936424     3.933981     3.931538     3.929095     3.926652     3.924209     3.921766
      3.919322     3.916879     3.914436     3.911993     3.909550     3.907107     3.904664     3.902221     3.899778     3.897335
      3.894892     3.892449     3.890006     3.887563     3.885119     3.882676     3.880233     3.877790     3.875347     3.872904
      3.870461     3.868018     3.865575     3.863132     3.860689     3.858246     3.855803     3.853359     3.850916     3.848473
      3.846030     3.843587     3.841144     3.838701     3.836258     3.833815     3.831372     3.828929     3.826486     3.824043
      3.821599     3.819156     3.816713     3.814270     3.811827     3.809384     3.806941     3.804498     3.802055     3.799612
      3.797169     3.794726     3.792283     3.789840     3.787396     3.784953     3.782510     3.780067     3.777624     3.775181
      3.772738     3.770295     3.767852     3.765409     3.762966     3.760523     3.758080     3.755636     3.753193     3.750750
      3.748307     3.745864     3.743421     3.740978     3.738535     3.736092     3.733649     3.731206     3.728763     3.726320
      3.723876     3.721433     3.718990     3.716547     3.714104     3.711661     3.709218     3.706775     3.704332     3.701889
      3.699446     3.697003     3.694560     3.692116     3.689673     3.687230     3.684787     3.682344     3.679901     3.677458
      3.675015     3.672572     3.670129     3.667686     3.665243     3.662800     3.660357     3.657913     3.655470     3.653027
      3.650584     3.648141     3.645698     3.643255     3.640812     3.638369     3.635926     3.633483     3.631040     3.628597
      3.626153     3.623710     3.621267     3.618824     3.616381     3.613938     3.611495     3.609052     3.606609     3.604166
      3.601723     3.599280     3.596837     3.594393     3.591950     3.589507     3.587064     3.584621     3.582178     3.579735
      3.577292     3.574849     3.572406     3.569963     3.567520     3.565077     3.562634     3.560190     3.557747     3.555304
      3.552861     3.550418     3.547975     3.545532     3.543089     3.540646     3.538203     3.535760     3.533317     3.530874
      3.528430     3.525987     3.523544     3.521101     3.518658     3.516215     3.513772     3.511329     3.508886     3.506443
      3.504000     3.501557     3.499114     3.496670     3.494227     3.491784     3.489341     3.486898     3.484455     3.482012
      3.479569     3.477126     3.474683     3.472240     3.469797     3.467354     3.464911     3.462467     3.460024     3.457581
      3.455138     3.452695     3.450252     3.447809     3.445366     3.442923     3.440480     3.438037     3.435594     3.433151
      3.430707     3.428264     3.425821     3.423378     3.420935     3.418492     3.416049     3.413606     3.411163     3.408720
      3.406277     3.403834     3.401391     3.398947     3.396504     3.394061     3.391618     3.389175     3.386732     3.384289
      3.381846     3.379403     3.376960     3.374517     3.372074     3.369631     3.367188     3.364744     3.362301     3.359858
      3.357415     3.354972     3.352529     3.350086     3.347643     3.345200     3.342757     3.340314     3.337871     3.335428
      3.332984     3.330541     3.328098     3.325655     3.323212     3.320769     3.318326     3.315883     3.313440     3.310997
      3.308554     3.306111     3.303668     3.301224     3.298781     3.296338     3.293895     3.291452     3.289009     3.286566
      3.284123     3.281680     3.279237     3.276794     3.274351     3.271908     3.269464     3.267021     3.264578     3.262135
      3.259692     3.257249     3.254806     3.252363     3.249920     3.247477     3.245034     3.242591     3.240148     3.237705
      3.235261     3.232818     3.230375     3.227932     3.225489     3.223046     3.220603     3.218160     3.215717     3.213274
      3.210831     3.208388     3.205945     3.203501     3.201058     3.198615     3.196172     3.193729     3.191286     3.188843
      3.186400     3.183957     3.181514     3.179071     3.176628     3.174185     3.171741     3.169298     3.166855     3.164412
      3.161969     3.159526     3.157083     3.154640     3.152197     3.149754     3.147311     3.144868     3.142425     3.139982
      3.137538     3.135095     3.132652     3.130209     3.127766     3.125323     3.122880     3.120437     3.117994     3.115551
      3.113108     3.110665     3.108222     3.105778     3.103335     3.100892     3.098449     3.096006     3.093563     3.091120
      3.088677     3.086234     3.083791     3.081348     3.078905     3.076462     3.074018     3.071575     3.069132     3.066689
      3.064246     3.061803     3.059360     3.056917     3.054474     3.052031     3.049588     3.047145     3.044702     3.042259
      3.039815     3.037372     3.034929     3.032486     3.030043     3.027600     3.025157     3.022714     3.020271     3.017828
      3.015385     3.012942     3.010499     3.008055     3.005612     3.003169     3.000726     2.998283     2.995840     2.993397
      2.990954     2.988511     2.986068     2.983625     2.981182     2.978739     2.976295     2.973852     2.971409     2.968966
      2.966523     2.964080     2.961637     2.959194     2.956751     2.954308     2.951865     2.949422     2.946979     2.944535
      2.942092     2.939649     2.937206     2.934763     2.932320     2.929877     2.927434     2.924991     2.922548     2.920105
      2.917662     2.915219     2.912776     2.910332     2.907889     2.905446     2.903003     2.900560     2.898117     2.895674
      2.893231     2.890788     2.888345     2.885902     2.883459     2.881016     2.878572     2.876129     2.873686     2.871243
      2.868800     2.866357     2.863914     2.861471     2.859028     2.856585     2.854142     2.851699     2.849256     2.846812
      2.844369     2.841926     2.839483     2.837040     2.834597     2.832154     2.829711     2.827268     2.824825     2.822382
      2.819939     2.817496     2.815053     2.812609     2.810166     2.807723     2.805280     2.802837     2.800394     2.797951
      2.795508     2.793065     2.790622     2.788179     2.785736     2.783293     2.780849     2.778406     2.775963     2.773520
      2.771077     2.768634     2.766191     2.763748     2.761305     2.758862     2.756419     2.753976     2.751533     2.749089
      2.746646     2.744203     2.741760     2.739317     2.736874     2.734431     2.731988     2.729545     2.727102     2.724659
      2.722216     2.719773     2.717330     2.714886     2.712443     2.710000     2.707557     2.705114     2.702671     2.700228
      2.697785     2.695342     2.692899     2.690456     2.688013     2.685570     2.683126     2.680683     2.678240     2.675797
      2.673354     2.670911     2.668468     2.666025     2.663582     2.661139     2.658696     2.656253     2.653810     2.651366
      2.648923     2.646480     2.644037     2.641594     2.639151     2.636708     2.634265     2.631822     2.629379     2.626936
      2.624493     2.622050     2.619606     2.617163     2.614720     2.612277     2.609834     2.607391     2.604948     2.602505
      2.600062     2.597619     2.595176     2.592733     2.590290     2.587847     2.585403     2.582960     2.580517     2.578074
      2.575631     2.573188     2.570745     2.568302     2.565859     2.563416     2.560973     2.558530     2.556087     2.553643
      2.551200     2.548757     2.546314     2.543871     2.541428     2.538985     2.536542     2.534099     2.531656     2.529213
      2.526770     2.524327     2.521883     2.519440     2.516997     2.514554     2.512111     2.509668     2.507225     2.504782
      2.502339     2.499896     2.497453     2.495010     2.492567     2.490124     2.487680     2.485237     2.482794     2.480351
      2.477908     2.475465     2.473022     2.470579     2.468136     2.465693     2.463250     2.460807     2.458364     2.455920
      2.453477     2.451034     2.448591     2.446148     2.443705     2.441262     2.438819     2.436376     2.433933     2.431490
      2.429047     2.426604     2.424160     2.421717     2.419274     2.416831     2.414388     2.411945     2.409502     2.407059
      2.404616     2.402173     2.399730     2.397287     2.394844     2.392401     2.389957     2.387514     2.385071     2.382628
      2.380185     2.377742     2.375299     2.372856     2.370413     2.367970     2.365527     2.363084     2.360641     2.358197
      2.355754     2.353311     2.350868     2.348425     2.345982     2.343539     2.341096     2.338653     2.336210     2.333767
      2.331324     2.328881     2.326437     2.323994     2.321551     2.319108     2.316665     2.314222     2.311779     2.309336
      2.306893     2.304450     2.302007     2.299564     2.297121     2.294677     2.292234     2.289791     2.287348     2.284905
      2.282462     2.280019     2.277576     2.275133     2.272690     2.270247     2.267804     2.265361     2.262918     2.260474
      2.258031     2.255588     2.253145     2.250702     2.248259     2.245816     2.243373     2.240930     2.238487     2.236044
      2.233601     2.231158     2.228714     2.226271     2.223828     2.221385     2.218942     2.216499     2.214056     2.211613
      2.209170     2.206727     2.204284     2.201841     2.199398     2.196954     2.194511     2.192068     2.189625     2.187182
      2.184739     2.182296     2.179853     2.177410     2.174967     2.172524     2.170081     2.167638     2.165195     2.162751
      2.160308     2.157865     2.155422     2.152979     2.150536     2.148093     2.145650     2.143207     2.140764     2.138321
      2.135878     2.133435     2.130991     2.128548     2.126105     2.123662     2.121219     2.118776     2.116333     2.113890
      2.111447     2.109004     2.106561     2.104118     2.101675     2.099231     2.096788     2.094345     2.091902     2.089459
      2.087016     2.084573     2.082130     2.079687     2.077244     2.074801     2.072358     2.069915     2.067472     2.065028
      2.062585     2.060142     2.057699     2.055256     2.052813     2.050370     2.047927     2.045484     2.043041     2.040598
      2.038155     2.035712     2.033268     2.030825     2.028382     2.025939     2.023496     2.021053     2.018610     2.016167
      2.013724     2.011281     2.008838     2.006395     2.003952     2.001508     1.999065     1.996622     1.994179     1.991736
      1.989293     1.986850     1.984407     1.981964     1.979521     1.977078     1.974635     1.972192     1.969748     1.967305
      1.964862     1.962419     1.959976     1.957533     1.955090     1.952647     1.950204     1.947761     1.945318     1.942875
      1.940432     1.937989     1.935545     1.933102     1.930659     1.928216     1.925773     1.923330     1.920887     1.918444
      1.916001     1.913558     1.911115     1.908672     1.906229     1.903785     1.901342     1.898899     1.896456     1.894013
      1.891570     1.889127     1.886684     1.884241     1.881798     1.879355     1.876912     1.874469     1.872025     1.869582
      1.867139     1.864696     1.862253     1.859810     1.857367     1.854924     1.852481     1.850038     1.847595     1.845152
      1.842709     1.840266     1.837822     1.835379     1.832936     1.830493     1.828050     1.825607     1.823164     1.820721
      1.818278     1.815835     1.813392     1.810949     1.808506     1.806062     1.803619     1.801176     1.798733     1.796290
      1.793847     1.791404     1.788961     1.786518     1.784075     1.781632     1.779189     1.776746     1.774302     1.771859
      1.769416     1.766973     1.764530     1.762087     1.759644     1.757201     1.754758     1.752315     1.749872     1.747429
      1.744986     1.742543     1.740099     1.737656     1.735213     1.732770     1.730327     1.727884     1.725441     1.722998
      1.720555     1.718112     1.715669     1.713226     1.710783     1.708339     1.705896     1.703453     1.701010     1.698567
      1.696124     1.693681     1.691238     1.688795     1.686352     1.683909     1.681466     1.679023     1.676579     1.674136
      1.671693     1.669250     1.666807     1.664364     1.661921     1.659478     1.657035     1.654592     1.652149     1.649706
      1.647263     1.644819     1.642376     1.639933     1.637490     1.635047     1.632604     1.630161     1.627718     1.625275
      1.622832     1.620389     1.617946     1.615503     1.613060     1.610616     1.608173     1.605730     1.603287     1.600844
      1.598401     1.595958     1.593515     1.591072     1.588629     1.586186     1.583743     1.581300     1.578856     1.576413
      1.573970     1.571527     1.569084     1.566641     1.564198     1.561755     1.559312     1.556869     1.554426     1.551983
      1.549540     1.547096     1.544653     1.542210     1.539767     1.537324     1.534881     1.532438     1.529995     1.527552
      1.525109     1.522666     1.520223     1.517780     1.515337     1.512893     1.510450     1.508007     1.505564     1.503121
      1.500678     1.498235     1.495792     1.493349     1.490906     1.488463     1.486020     1.483577     1.481133     1.478690
      1.476247     1.473804     1.471361     1.468918     1.466475     1.464032     1.461589     1.459146     1.456703     1.454260
      1.451817     1.449373     1.446930     1.444487     1.442044     1.439601     1.437158     1.434715     1.432272     1.429829
      1.427386     1.424943     1.422500     1.420057     1.417614     1.415170     1.412727     1.410284     1.407841     1.405398
      1.402955     1.400512     1.398069     1.395626     1.393183     1.390740     1.388297     1.385854     1.383410     1.380967
      1.378524     1.376081     1.373638     1.371195     1.368752     1.366309     1.363866     1.361423     1.358980     1.356537
      1.354094     1.351650     1.349207     1.346764     1.344321     1.341878     1.339435     1.336992     1.334549     1.332106
      1.329663     1.327220     1.324777     1.322334     1.319890     1.317447     1.315004     1.312561     1.310118     1.307675
      1.305232     1.302789     1.300346     1.297903     1.295460     1.293017     1.290574     1.288131     1.285687     1.283244
      1.280801     1.278358     1.275915     1.273472     1.271029     1.268586     1.266143     1.263700     1.261257     1.258814
      1.256371     1.253927     1.251484     1.249041     1.246598     1.244155     1.241712     1.239269     1.236826     1.234383
      1.231940     1.229497     1.227054     1.224611     1.222167     1.219724     1.217281     1.214838     1.212395     1.209952
      1.207509     1.205066     1.202623     1.200180     1.197737     1.195294     1.192851     1.190408     1.187964     1.185521
      1.183078     1.180635     1.178192     1.175749     1.173306     1.170863     1.168420     1.165977     1.163534     1.161091
      1.158648     1.156204     1.153761     1.151318     1.148875     1.146432     1.143989     1.141546     1.139103     1.136660
      1.134217     1.131774     1.129331     1.126888     1.124444     1.122001     1.119558     1.117115     1.114672     1.112229
      1.109786     1.107343     1.104900     1.102457     1.100014     1.097571     1.095128     1.092685     1.090241     1.087798
      1.085355     1.082912     1.080469     1.078026     1.075583     1.073140     1.070697     1.068254     1.065811     1.063368
      1.060925     1.058481     1.056038     1.053595     1.051152     1.048709     1.046266     1.043823     1.041380     1.038937
      1.036494     1.034051     1.031608     1.029165     1.026721     1.024278     1.021835     1.019392     1.016949     1.014506
      1.012063     1.009620     1.007177     1.004734     1.002291     0.999848     0.997404     0.994961     0.992518     0.990075
      0.987632     0.985189     0.982746     0.980303     0.977859     0.975416     0.972973     0.970530     0.968087     0.965644
      0.963201     0.960757     0.958314     0.955871     0.953428     0.950985     0.948542     0.946099     0.943655     0.941212
      0.938769     0.936326     0.933883     0.931440     0.928997     0.926554     0.924110     0.921667     0.919224     0.916781
      0.914338     0.911895     0.909452     0.907008     0.904565     0.902122     0.899679     0.897236     0.894793     0.892350
      0.889907     0.887463     0.885020     0.882577     0.880134     0.877691     0.875248     0.872805     0.870361     0.867918
      0.865475     0.863032     0.860589     0.858146     0.855703     0.853260     0.850816     0.848373     0.845930     0.843487
      0.841044     0.838601     0.836158     0.833714     0.831271     0.828828     0.826385     0.823942     0.821499     0.819056
      0.816612     0.814169     0.811726     0.809283     0.806840     0.804397     0.801954     0.799511     0.797067     0.794624
      0.792181     0.789738     0.787295     0.784852     0.782409     0.779965     0.777522     0.775079     0.772636     0.770193
      0.767750     0.765307     0.762864     0.760420     0.757977     0.755534     0.753091     0.750648     0.748205     0.745762
      0.743318     0.740875     0.738432     0.735989     0.733546     0.731103     0.728660     0.726216     0.723773     0.721330
      0.718887     0.716444     0.714001     0.711558     0.709115     0.706671     0.704228     0.701785     0.699342     0.696899
      0.694456     0.692013     0.689569     0.687126     0.684683     0.682240     0.679797     0.677354     0.674911     0.672468
      0.670024     0.667581     0.665138     0.662695     0.660252     0.657809     0.655366     0.652922     0.650479     0.648036
      0.645593     0.643150     0.640707     0.638264     0.635821     0.633377     0.630934     0.628491     0.626048     0.623605
      0.621162     0.618719     0.616275     0.613832     0.611389     0.608946     0.606503     0.604060     0.601617     0.599173
      0.596730     0.594287     0.591844     0.589401     0.586958     0.584515     0.582072     0.579628     0.577185     0.574742
      0.572299     0.569856     0.567413     0.564970     0.562526     0.560083     0.557640     0.555197     0.552754     0.550311
      0.547868     0.545425     0.542981     0.540538     0.538095     0.535652     0.533209     0.530766     0.528323     0.525879
      0.523436     0.520993     0.518550     0.516107     0.513664     0.511221     0.508777     0.506334     0.503891     0.501448
      0.499005     0.496562     0.494119     0.491676     0.489232     0.486789     0.484346     0.481903     0.479460     0.477017
      0.474574     0.472130     0.469687     0.467244     0.464801     0.462358     0.459915     0.457472     0.455029     0.452585
      0.450142     0.447699     0.445256     0.442813     0.440370     0.437927     0.435483     0.433040     0.430597     0.428154
      0.425711     0.423268     0.420825     0.418382     0.415938     0.413495     0.411052     0.408609     0.406166     0.403723
      0.401280     0.398836     0.396393     0.393950     0.391507     0.389064     0.386621     0.384178     0.381734     0.379291
      0.376848     0.374405     0.371962     0.369519     0.367076     0.364633     0.362189     0.359746     0.357303     0.354860
      0.352417     0.349974     0.347531     0.345087     0.342644     0.340201     0.337758     0.335315     0.332872     0.330429
      0.327986     0.325542     0.323099     0.320656     0.318213     0.315770     0.313327     0.310884     0.308440     0.305997
      0.303554     0.301111     0.298668     0.296225     0.293782     0.291339     0.288895     0.286452     0.284009     0.281566
      0.279123     0.276680     0.274237     0.271793     0.269350     0.266907     0.264464     0.262021     0.259578     0.257135
      0.254691     0.252248     0.249805     0.247362     0.244919     0.242476     0.240033     0.237590     0.235147     0.232703
      0.230260     0.227817     0.225374     0.222931     0.220488     0.218045     0.215602     0.213158     0.210715     0.208272
      0.205829     0.203386     0.200943
 NY phased data points follow
  -2.79060E-11 -3.27493E-11 -3.29844E-11 -2.93250E-11 -2.16014E-11 -1.03947E-11  1.09178E-12  7.27818E-12  3.30193E-12 -1.09231E-11
  -2.89295E-11 -4.03159E-11 -3.67717E-11 -1.77470E-11  8.28461E-12  2.83049E-11  3.24163E-11  1.97610E-11 -1.21980E-12 -1.83721E-11
  -2.34909E-11 -1.69733E-11 -6.53538E-12 -1.23396E-12 -5.15994E-12 -1.51731E-11 -2.39403E-11 -2.57252E-11 -2.05332E-11 -1.36644E-11
  -1.12247E-11 -1.51398E-11 -2.14728E-11 -2.33263E-11 -1.61595E-11 -1.58553E-12  1.32016E-11  2.00500E-11  1.53502E-11  2.62177E-12
  -9.53976E-12 -1.27623E-11 -3.95863E-12  1.29767E-11  2.96589E-11  3.80661E-11  3.47331E-11  2.20175E-11  6.17887E-12 -6.21696E-12
  -1.14545E-11 -9.96438E-12 -5.51291E-12 -3.00486E-12 -5.94616E-12 -1.45635E-11 -2.53228E-11 -3.22495E-11 -2.98027E-11 -1.62047E-11
   4.55496E-12  2.35932E-11  3.11093E-11  2.17245E-11 -1.81929E-12 -2.91751E-11 -4.73985E-11 -4.79145E-11 -3.13632E-11 -7.24588E-12
   1.16408E-11  1.66880E-11  8.29683E-12 -4.93739E-12 -1.20640E-11 -6.86048E-12  8.35418E-12  2.44585E-11  3.15048E-11  2.49643E-11
   8.32575E-12 -9.35016E-12 -1.90431E-11 -1.68725E-11 -5.63073E-12  7.79139E-12  1.70879E-11  2.02790E-11  2.04228E-11  2.32438E-11
   3.34067E-11  5.16330E-11  7.40853E-11  9.40635E-11  1.05002E-10  1.03346E-10  9.01510E-11  7.07791E-11  5.27850E-11  4.27573E-11
   4.34520E-11  5.26206E-11  6.43059E-11  7.20937E-11  7.26027E-11  6.71366E-11  6.04391E-11  5.73071E-11  5.93310E-11  6.40152E-11
   6.69190E-11  6.52313E-11  6.00533E-11  5.55130E-11  5.52408E-11  5.88852E-11  6.15939E-11  5.72827E-11  4.35718E-11  2.46471E-11
   9.48782E-12  6.18204E-12  1.61620E-11  3.26461E-11  4.48536E-11  4.53656E-11  3.54701E-11  2.44072E-11  2.26692E-11  3.39037E-11
   5.13409E-11  6.17294E-11  5.44866E-11  2.97975E-11 -2.32724E-13 -1.86798E-11 -1.46769E-11  9.23288E-12  3.84115E-11  5.54206E-11
   5.11956E-11  3.06862E-11  9.33258E-12  2.90733E-12  1.76031E-11  4.67736E-11  7.60072E-11  9.25735E-11  9.27238E-11  8.23582E-11
   7.15327E-11  6.74255E-11  7.08791E-11  7.83660E-11  8.69306E-11  9.75683E-11  1.14148E-10  1.38862E-10  1.68246E-10  1.93563E-10
   2.06003E-10  2.03178E-10  1.92004E-10  1.85289E-10  1.93815E-10  2.19070E-10  2.51653E-10  2.76640E-10  2.82580E-10  2.68312E-10
   2.43304E-10  2.21522E-10  2.12974E-10  2.18351E-10  2.29870E-10  2.37251E-10  2.34655E-10  2.24180E-10  2.14109E-10  2.13503E-10
   2.26757E-10  2.51248E-10  2.78975E-10  3.00726E-10  3.10259E-10  3.06517E-10  2.93343E-10  2.77328E-10  2.64965E-10  2.60105E-10
   2.62471E-10  2.67734E-10  2.69339E-10  2.61634E-10  2.43051E-10  2.17626E-10  1.93669E-10  1.79840E-10  1.80520E-10  1.93078E-10
   2.08802E-10  2.17179E-10  2.11211E-10  1.90808E-10  1.62413E-10  1.35292E-10  1.16770E-10  1.09072E-10  1.09257E-10  1.11732E-10
   1.11583E-10  1.06832E-10  9.87861E-11  9.08295E-11  8.66261E-11  8.85774E-11  9.69007E-11  1.09367E-10  1.21777E-10  1.29252E-10
