 Sweep Width = 8000 Hz
 Vector Size = 4096 points
 B0 Field = 3.997182e+02 MHz
 Ref Singlet = True
 $SEQPAR
 ECHOT = 52.
 HZPPM= 399.7182
 SEQ = 'sLASER'
 $END
 $NMID
 ID='1658'
 FMTDAT='(2E16.6)'
 BRUKER= T
 $END
   1.506452E-06   1.193508E-06
   2.808982E-06  -1.368124E-06
  -7.066940E-07  -1.819341E-06
  -2.753955E-06  -4.737023E-07
  -2.305244E-06   9.488533E-07
   2.744098E-07   8.290118E-07
   1.826544E-06  -1.729080E-07
   1.673871E-06  -1.178138E-06
  -1.846773E-08  -1.050959E-06
  -1.048379E-06  -2.843819E-07
  -1.197876E-06   2.219346E-07
  -4.349432E-07   2.283462E-08
  -1.715731E-07  -2.542296E-07
  -2.759304E-07  -1.236042E-07
  -4.792058E-07   3.412871E-07
  -2.665618E-07   5.626219E-07
   1.146757E-07   2.024669E-07
   4.120184E-07  -5.322935E-07
  -8.612009E-08  -6.067218E-07
  -3.999758E-07   2.809813E-07
  -3.129893E-07   1.217839E-06
   2.171795E-07   1.234128E-06
   4.414195E-07   5.235316E-07
   5.105336E-07  -2.697298E-07
   5.988195E-07  -4.313773E-07
   1.058485E-06  -3.951780E-07
   9.877681E-07  -5.053967E-07
   1.803906E-07  -5.002474E-07
  -6.724090E-07  -4.104933E-07
  -5.512308E-07  -8.961089E-08
   6.667998E-08  -3.679040E-08
   7.763373E-07  -2.736539E-07
   6.238689E-07  -4.852100E-07
   5.541475E-08  -3.198833E-07
  -7.334439E-07   8.366981E-08
  -8.167151E-07   4.169197E-07
  -3.496250E-07   3.432363E-07
   2.698958E-07  -1.091188E-07
   7.403224E-08  -4.884218E-07
  -5.485902E-07  -2.462915E-07
  -8.496681E-07   5.710509E-07
  -5.711261E-07   9.017867E-07
  -9.397399E-08   3.400386E-07
   1.233358E-07  -2.474273E-07
  -1.672165E-07  -1.612610E-07
  -9.293628E-08   3.235257E-07
   4.634546E-07   6.979625E-07
   8.448650E-07   1.854440E-07
   4.422680E-07  -6.361263E-07
  -2.621263E-07  -7.459086E-07
  -5.264561E-07  -1.597824E-07
   2.280488E-07   5.737206E-07
   1.009334E-06   5.758757E-07
   1.047077E-06  -8.404764E-08
   3.840904E-07  -6.250262E-07
  -3.899158E-07  -7.191537E-07
  -5.569426E-07  -1.599984E-07
   4.289225E-08   3.207982E-07
   6.878732E-07   2.352330E-07
   7.528851E-07  -1.249164E-07
  -5.392803E-08  -4.365956E-07
  -6.887518E-07  -2.641649E-07
  -6.376273E-07   1.289369E-07
  -1.454138E-07   1.738772E-07
  -1.328746E-09   1.942897E-08
  -2.407693E-07   1.298109E-07
  -3.036713E-07   3.024021E-07
  -1.017113E-08   3.130035E-07
   1.917085E-07   3.611642E-08
   1.649100E-07  -2.373121E-07
  -2.289903E-07  -5.862715E-08
  -4.756029E-07   4.802273E-07
  -4.926955E-08   7.965769E-07
   1.255868E-07   4.496354E-07
   2.188428E-07  -1.043938E-07
   1.312005E-07  -5.329121E-07
  -1.840053E-08  -4.711604E-07
   1.237595E-07   3.179008E-08
   2.389049E-07   3.205987E-07
   3.560679E-07   1.260341E-07
   1.575822E-07  -2.354228E-07
  -9.499153E-08  -4.782713E-07
  -1.594541E-07  -2.788234E-07
   1.199335E-07  -6.929257E-08
   4.400355E-07  -1.777648E-07
   5.029968E-07  -4.446231E-07
  -1.041339E-07  -5.124298E-07
  -6.336988E-07  -8.805145E-08
  -6.114440E-07   3.282454E-07
  -2.719180E-08   4.284597E-07
   2.039910E-07   2.244539E-07
   2.276973E-08  -1.454778E-07
  -2.256172E-07  -1.285013E-07
  -3.135532E-07   1.050168E-07
  -1.163017E-07   2.214331E-07
   5.781642E-08   2.437761E-07
   8.709714E-08   4.428689E-07
   8.250519E-08   3.577767E-07
  -1.022837E-07   1.553904E-07
  -1.413487E-07  -2.091310E-08
  -1.135536E-07  -4.400857E-08
  -3.679894E-08   9.815169E-09
   1.034001E-07   1.494584E-07
   2.436403E-07   2.240284E-07
   2.449194E-07   2.137449E-07
   2.162985E-07   1.087919E-08
   1.510169E-07  -4.352932E-07
   8.947007E-08  -5.257113E-07
  -1.849404E-07  -3.017305E-07
  -7.953868E-08   1.702972E-07
   2.305850E-07   2.218630E-07
   2.476549E-07  -6.112681E-08
  -1.283350E-07  -1.450901E-07
  -3.010087E-07  -7.616922E-08
  -1.378957E-07   6.573219E-08
  -6.680230E-08   1.003149E-07
  -1.370147E-07  -1.713763E-08
  -4.030315E-07   1.320511E-08
  -2.814122E-07   1.668447E-07
  -2.600171E-07   1.907324E-07
  -2.794919E-07   1.818801E-07
   3.034054E-08   2.307398E-09
   1.015160E-07   8.042103E-08
  -1.335758E-07   1.121909E-07
  -1.625407E-07   1.499659E-07
   8.796185E-08   3.070214E-07
   3.941907E-07   1.106522E-07
   6.125960E-07  -8.652835E-08
   4.175396E-07  -2.251312E-07
   1.092102E-07  -1.498283E-07
  -1.710033E-07   1.713024E-07
  -1.929486E-08   3.567105E-07
   3.067719E-07   1.380145E-07
   3.555985E-07  -1.383072E-07
   1.626087E-07  -1.028392E-07
  -5.856782E-10  -8.902359E-08
   5.408089E-08  -3.149797E-09
  -7.821802E-08  -7.898820E-08
  -2.226319E-07  -1.688728E-07
  -2.347362E-07  -1.245314E-07
  -3.030259E-07   2.153001E-08
  -2.783000E-07   9.351192E-08
  -7.618092E-08   1.562251E-07
  -1.054080E-07   1.413985E-07
  -1.571482E-07  -7.057244E-08
  -2.740290E-07  -9.322478E-08
  -3.537766E-07   9.108390E-08
  -2.037627E-07   1.949967E-07
  -1.338515E-07   1.534858E-07
   1.049735E-09   3.495255E-08
  -2.304824E-08  -1.404596E-09
  -1.092863E-07   2.367213E-08
   9.079910E-08   7.752512E-08
   1.826140E-07   7.524225E-08
   1.255546E-07  -6.145169E-08
   1.839993E-07  -8.181079E-08
   5.952951E-08  -6.641388E-08
   8.234039E-08  -1.715882E-07
   7.626753E-08  -2.450042E-07
  -3.886677E-09  -3.023962E-07
   6.840941E-08  -2.110613E-07
   7.354699E-09  -1.976308E-07
  -1.351951E-08  -1.747043E-08
   1.461121E-07  -5.633612E-08
  -2.054698E-08  -5.210143E-08
   4.202522E-08   7.909551E-08
   1.833441E-09  -1.524493E-07
  -1.988725E-07  -1.374943E-07
  -2.148949E-07   4.848412E-08
  -2.647113E-07   2.022742E-07
  -1.105164E-07   3.474818E-07
   3.545560E-08   7.146168E-08
   7.916224E-08   1.085880E-07
   8.241847E-08   1.314033E-07
   1.295874E-07   1.659089E-07
   8.510406E-08   2.048067E-07
  -1.822737E-08   2.028104E-07
   5.352660E-08  -8.361415E-09
   1.136895E-07   9.075050E-08
   2.105298E-07   6.527096E-08
   2.424468E-07  -9.030805E-09
   1.273496E-07   7.442216E-08
   1.302137E-07   2.384424E-08
   1.179490E-07  -7.949836E-08
   6.085072E-08  -1.012641E-07
  -4.325196E-08  -6.287622E-08
  -3.117593E-08   1.269047E-08
   6.203453E-08  -2.075990E-08
  -2.674353E-08  -1.459428E-07
  -6.070079E-08  -4.029293E-08
  -1.512159E-07  -3.264907E-08
  -6.617010E-08   1.408480E-07
  -6.613091E-08   1.349513E-07
  -1.528577E-07   1.817990E-08
  -1.791703E-07   4.225329E-08
  -7.814340E-08   5.466150E-08
  -1.294414E-08   3.291267E-08
  -3.352721E-08   9.619175E-08
   1.057423E-08   2.163409E-07
   8.246607E-08   1.239919E-07
  -2.977255E-08   8.118738E-08
  -6.070535E-08   7.536502E-09
  -6.617885E-08   9.476192E-08
  -6.745044E-08   1.206335E-07
   6.018344E-08  -1.532776E-08
   3.294700E-08   5.950792E-08
   5.110194E-08  -2.937997E-08
   1.928871E-07  -9.992040E-08
   1.067036E-07  -5.622067E-08
   1.634006E-07  -1.197635E-07
   1.674076E-07  -1.744660E-07
   1.082225E-07  -1.086872E-07
   8.200020E-08  -4.894350E-08
   2.797668E-08  -8.163816E-08
   2.395107E-08  -1.003378E-07
  -2.430793E-08  -1.280889E-07
   1.084534E-09  -9.063909E-09
   1.738769E-07   5.380631E-08
   1.017667E-07   2.415885E-08
  -1.576132E-07   2.087847E-08
  -2.288596E-07   6.997994E-08
  -5.654488E-08   1.544709E-07
   4.992051E-08   1.156976E-07
   8.365192E-08   1.837059E-07
   6.896759E-08   1.887190E-07
   5.668382E-08   2.284554E-07
   4.615301E-08   2.098429E-07
  -4.642469E-08   1.668892E-07
   9.247310E-08   1.221899E-07
   3.261736E-07   1.087531E-07
   1.803338E-07  -3.921172E-08
  -1.809468E-08  -5.284676E-08
   1.755128E-07  -1.733578E-07
   1.851989E-07  -9.221147E-08
   6.503703E-08  -1.082925E-07
   2.912784E-08  -2.375181E-07
   9.088646E-09  -7.549326E-08
  -1.740825E-07  -6.314086E-08
  -1.240849E-07  -2.830438E-07
  -5.683323E-08  -2.034307E-07
  -1.667626E-07  -2.297777E-07
  -1.833646E-07  -1.466623E-07
  -1.758702E-07  -4.315447E-08
  -1.025056E-07   5.742973E-08
  -1.321835E-07   8.023947E-08
  -1.227450E-07   2.481808E-08
   3.954055E-08   6.796606E-08
   2.101506E-08  -1.406129E-08
  -3.854514E-08  -1.527374E-07
  -1.059875E-07   5.873353E-08
  -1.510979E-07   2.426687E-07
   4.101648E-08   9.092624E-08
   6.175006E-08   3.671475E-08
  -2.917490E-08   1.038073E-07
  -3.503439E-09   1.276899E-07
   3.817630E-09   4.241720E-08
   1.117017E-07  -6.663853E-08
   9.128030E-09  -2.161207E-08
   1.083299E-07   6.187505E-08
   1.184635E-07  -8.106017E-08
   1.806673E-07  -1.476663E-07
   1.749503E-07  -1.800583E-08
   4.253074E-08   4.271841E-08
   6.921015E-08  -2.081188E-08
   1.262412E-07   2.528060E-09
   6.576556E-08  -8.722162E-08
  -1.683775E-09   1.225795E-07
  -7.064399E-08   6.079703E-08
   5.962349E-08  -7.728952E-08
   3.432582E-08  -8.992234E-08
  -6.083498E-08  -1.019099E-07
  -5.454839E-08  -3.082206E-09
  -8.454914E-08   1.267140E-07
   2.225220E-08   1.415737E-07
  -4.962017E-10   5.507735E-09
   1.599495E-08   5.348221E-08
   1.397090E-08   1.789935E-07
  -7.602306E-08   9.245816E-08
   3.309989E-08   2.004831E-07
  -5.015294E-08   2.185586E-07
   2.567825E-08   7.975844E-08
   8.983373E-08   4.708726E-08
   6.913717E-08   1.579658E-08
  -7.590674E-08  -4.562710E-09
  -4.088707E-08   1.446654E-07
   8.791440E-08   1.816798E-08
   1.016074E-07  -5.366383E-08
   3.597793E-09  -8.526223E-08
  -7.769812E-08   4.298141E-08
  -4.157580E-08   1.377089E-07
  -7.077191E-08  -1.005787E-07
  -9.003292E-08  -1.104408E-07
  -8.256989E-08  -1.170035E-08
  -7.943004E-08   5.414861E-08
  -2.828828E-08   2.387178E-08
  -1.350116E-07  -1.096548E-07
  -1.754637E-07   1.152073E-07
  -3.531351E-08   9.905045E-08
  -7.833995E-08   7.894750E-09
   3.975111E-09  -1.358094E-07
  -1.422829E-08  -2.400936E-08
  -2.938393E-08  -1.360314E-08
   8.930035E-09  -2.946520E-08
   1.655776E-08   7.306931E-08
   8.496821E-08   1.648240E-07
   8.688832E-08   8.566406E-08
   7.966105E-08   7.471417E-09
   1.044739E-07  -8.727847E-08
   3.819383E-08  -4.196651E-08
   8.042533E-08   1.672306E-08
   1.532072E-07   2.813074E-09
   1.296138E-07  -1.219750E-08
   7.195028E-08  -1.667484E-08
  -1.261146E-08  -5.180760E-08
   4.681693E-08  -5.710123E-08
