 Sweep Width = 8000 Hz
 Vector Size = 4096 points
 B0 Field = 3.997182e+02 MHz
 Ref Singlet = True
 $SEQPAR
 ECHOT = 60.
 HZPPM= 399.7182
 SEQ = 'sLASER'
 $END
 $NMID
 ID='1658'
 FMTDAT='(2E16.6)'
 BRUKER= T
 $END
   1.193370E-06   3.431098E-07
   1.534386E-06  -1.184195E-06
  -1.022964E-06  -9.442708E-07
  -1.898584E-06   2.875061E-07
  -1.130216E-06   9.200283E-07
   6.078767E-07   2.651871E-07
   1.284811E-06  -8.206013E-07
   6.936881E-07  -1.195249E-06
  -6.516901E-07  -5.035623E-07
  -9.345633E-07   3.337107E-07
  -5.407415E-07   4.685570E-07
   2.066166E-08  -2.024594E-08
  -2.687924E-07  -6.032183E-07
  -7.165472E-07  -3.037859E-07
  -1.036086E-06   5.600220E-07
  -3.231881E-07   9.366131E-07
   5.383742E-07   4.370386E-07
   9.682601E-07  -5.758896E-07
   2.990905E-07  -8.304343E-07
  -5.965570E-07  -7.789980E-08
  -7.007053E-07   9.943592E-07
   7.544820E-08   1.202592E-06
   6.021787E-07   7.156482E-07
   5.616989E-07   1.402905E-07
   5.861185E-07  -3.695521E-07
   5.274127E-07  -4.830797E-07
   2.885667E-07  -2.195381E-07
   8.060132E-08  -4.161657E-08
  -1.949550E-07  -1.182084E-08
  -6.162243E-08  -6.300073E-09
   3.651218E-07  -2.036174E-07
   4.099539E-07  -4.850138E-07
   2.345966E-07  -5.594092E-07
  -9.320676E-08  -3.827349E-07
  -5.462431E-07  -8.841639E-08
  -4.031908E-07   2.400242E-07
   1.386217E-08   2.426609E-07
   3.271838E-07  -3.237972E-07
   5.221703E-08  -5.852694E-07
  -5.022475E-07  -2.135992E-07
  -7.648229E-07   2.687410E-07
  -6.088917E-07   6.786577E-07
  -1.837125E-07   4.603895E-07
   1.601968E-07  -2.097285E-07
  -1.115578E-08  -9.658076E-08
  -5.445602E-08   3.819178E-07
   3.266301E-07   4.236538E-07
   4.042224E-07   1.260448E-07
   1.513574E-07  -3.261050E-07
  -1.950500E-07  -2.641274E-07
  -3.332050E-07   9.264370E-08
   2.177699E-07   4.551650E-07
   6.597711E-07   3.732354E-07
   5.753785E-07   1.054798E-07
   2.507966E-07  -3.161255E-07
  -7.249706E-08  -4.097424E-07
  -3.470777E-07  -1.861682E-07
  -3.035020E-08   1.007146E-07
   2.370472E-07   6.029722E-08
   2.474771E-07  -2.081646E-07
   3.098679E-08  -2.841800E-07
  -1.938424E-07  -4.534268E-08
  -4.268690E-08   1.116415E-08
   2.029375E-07  -6.933257E-08
  -1.488170E-07  -2.349940E-07
  -4.512116E-07  -1.435997E-07
  -4.227585E-07   2.613180E-07
  -1.525114E-07   3.480443E-07
   1.263638E-07  -1.395754E-07
  -2.559032E-08  -4.550490E-07
  -4.556979E-07  -2.137486E-07
  -4.537749E-07   3.696597E-07
  -2.890828E-07   6.834767E-07
   1.003550E-07   6.050449E-07
   2.651972E-07   1.327837E-07
   1.510953E-07  -3.549196E-07
  -4.328945E-08  -3.443159E-07
  -5.500282E-08   1.076159E-07
   3.564325E-08   4.183485E-07
   2.558307E-07   2.962795E-07
   1.930438E-07   4.577508E-08
  -1.613685E-07  -1.377493E-07
  -2.274977E-07  -8.120407E-08
   7.723581E-08   5.589138E-09
   2.951938E-07  -2.240605E-08
   2.083139E-07  -2.006444E-07
  -1.349725E-07  -3.319278E-07
  -4.082764E-07  -7.782953E-08
  -2.165618E-07   3.242442E-07
   7.904965E-08   2.340460E-07
   3.105646E-07  -1.063548E-07
   4.095751E-09  -1.574393E-07
  -5.498485E-07   1.990961E-08
  -4.478682E-07   2.091177E-07
  -1.075522E-07   2.385148E-07
   1.389005E-07   1.734064E-07
   1.762497E-07   1.713772E-07
   5.852743E-08   1.735913E-07
  -1.493908E-07   9.476275E-08
  -2.754628E-07   1.427146E-08
  -2.011899E-07  -5.776257E-08
   1.106425E-08  -6.713047E-08
   1.114022E-07   1.102659E-07
   3.299050E-08   4.059812E-08
   6.222605E-08   8.930614E-08
   2.315124E-07   1.751900E-07
   2.221960E-07  -2.106053E-07
   1.215478E-07  -4.122900E-07
  -6.491688E-08  -2.594424E-07
  -8.518378E-08   6.491291E-09
   8.958074E-08   1.039105E-07
   2.794247E-07  -4.514035E-08
   2.285515E-07  -1.744237E-07
  -1.262993E-07  -2.275265E-07
  -2.414811E-07  -1.470416E-07
  -1.510162E-07   3.344432E-08
  -2.231024E-07   4.536297E-08
  -3.581694E-07   1.305609E-07
  -2.953811E-07   3.169588E-07
  -2.996076E-08   3.129702E-07
   3.182347E-08   1.432699E-07
  -1.416304E-07   3.275949E-08
  -2.076798E-07   4.766854E-08
  -1.753046E-07   2.714498E-07
  -1.533027E-07   3.713790E-07
   1.780488E-08   2.832159E-07
   2.051212E-07   1.104209E-07
   3.229825E-07  -4.411350E-08
   3.264902E-07  -1.456806E-07
   1.120655E-07  -1.999111E-07
  -9.665285E-08  -4.340837E-08
  -4.945706E-09   4.138554E-08
   1.248687E-07   2.411423E-08
   1.626578E-07   4.609838E-08
   8.150083E-08  -6.505490E-08
   9.550128E-08  -1.025613E-07
   1.923692E-07  -1.496267E-07
  -3.217648E-08  -2.212661E-07
  -2.847375E-07  -2.994768E-07
  -1.572964E-07  -1.787329E-07
  -5.047438E-08   6.670031E-08
  -4.974226E-08   5.581207E-09
  -4.479505E-08  -1.303111E-07
  -1.769391E-07  -5.923223E-08
  -1.024926E-07  -2.427036E-08
  -1.066939E-07  -7.994670E-08
  -1.271583E-07  -3.974156E-08
   8.642395E-10   9.213473E-08
  -6.707376E-08   1.949828E-07
   6.107296E-09   2.704376E-07
   6.535230E-08   1.071957E-07
  -2.060724E-08   4.447407E-08
   3.614103E-08   1.253676E-07
   3.706975E-09   1.932051E-07
   5.341593E-08   1.292064E-07
   1.944927E-07   8.085510E-08
   2.632163E-07   6.859935E-08
   2.571969E-07  -9.697469E-08
  -5.109867E-08  -6.328685E-08
  -8.785757E-08  -4.092268E-08
  -3.703107E-08  -1.040116E-07
  -2.271473E-08   1.954037E-09
   4.784972E-08   2.215582E-08
  -4.939226E-08  -7.172447E-08
  -4.904969E-08   4.068647E-08
   2.037089E-07   9.784481E-09
   1.186937E-07  -2.780409E-08
  -8.146541E-08  -8.484089E-09
  -2.895195E-07   1.188822E-08
  -1.451117E-07   1.185954E-07
   5.986556E-09   2.565985E-07
   5.393047E-08   1.429322E-07
   1.066612E-07   3.278661E-08
   3.249979E-08   6.718245E-08
  -2.014595E-09   5.483490E-08
  -9.372376E-09   8.658362E-08
   3.672593E-08   2.648105E-07
   8.357416E-08   1.722365E-07
   2.179754E-07   4.695736E-08
   1.629813E-07   5.947637E-08
   1.083159E-07   4.602382E-08
   2.063146E-10  -1.916377E-08
  -2.040085E-08   9.493970E-09
   1.974168E-07  -8.780650E-08
   6.710326E-08  -1.671791E-07
  -3.508641E-08  -2.182700E-07
   1.565473E-08  -1.585803E-07
   5.603006E-08  -1.344604E-08
   3.278998E-08  -1.763770E-07
  -4.180189E-08  -2.136215E-07
  -1.272948E-07  -5.734671E-08
  -1.153201E-07   1.350885E-07
   5.255058E-08   1.156190E-07
  -1.144166E-07  -1.125166E-07
  -2.466690E-07   6.496800E-08
  -1.553381E-07   1.696086E-08
  -1.981618E-07  -1.169223E-07
  -1.807059E-07  -6.358780E-08
  -1.858400E-07   1.909794E-07
  -1.487607E-07   3.089714E-07
   1.066429E-07   1.822648E-07
   9.787219E-08   1.286146E-07
  -9.572721E-08  -4.803225E-09
  -1.605797E-07  -1.027944E-07
  -6.766184E-08   1.468162E-07
  -6.214168E-09   1.842797E-07
   2.888664E-09   7.755879E-08
   6.506066E-08  -2.309456E-08
   1.635032E-07   1.458281E-08
   5.693577E-08  -8.142633E-08
  -9.500933E-08  -6.073764E-09
  -6.254528E-08  -8.352590E-08
  -7.594226E-09  -7.248064E-08
  -7.049789E-09  -4.859418E-08
   6.064932E-08  -1.110725E-07
  -6.936781E-08  -1.075946E-07
   5.206296E-08   9.876512E-09
   1.311363E-08  -5.626563E-08
  -1.063888E-07  -3.732172E-08
  -1.520077E-07  -4.973959E-09
  -8.180066E-08   6.346138E-08
  -4.697052E-08   8.512489E-08
  -5.808587E-08  -3.964656E-08
   7.085847E-08  -1.023978E-07
  -2.033418E-09   1.765074E-08
  -3.362624E-08   1.088897E-07
  -7.023814E-08   7.740356E-08
  -5.178949E-08   4.116001E-08
  -1.629249E-07   6.198368E-08
   2.068557E-07   6.387905E-08
   3.894492E-07   7.780320E-08
   1.337963E-07  -5.906752E-08
   5.051649E-08  -1.816760E-08
   7.150480E-08   7.942280E-08
   5.480052E-08  -1.079864E-07
   1.213353E-07  -1.147950E-07
   1.376888E-07  -1.574290E-08
   6.681877E-08   1.728902E-07
   3.105170E-08  -4.356441E-09
  -1.646100E-07  -6.298125E-08
  -1.650471E-07   6.243946E-08
  -1.580210E-07   5.328794E-08
  -7.417618E-08  -2.725606E-08
  -3.836805E-08   5.180990E-08
  -1.985605E-07   4.085289E-08
  -2.035144E-07   1.279427E-07
  -3.293892E-08   1.136874E-07
  -3.239874E-08  -1.073476E-07
  -4.253422E-08  -9.495179E-08
  -5.713646E-08  -2.409972E-08
  -2.594914E-08  -2.428870E-08
  -5.776862E-08  -1.016173E-07
   8.740492E-08   6.411317E-08
   1.397501E-07   8.677163E-08
   1.098863E-07   1.401880E-07
   2.064507E-07   1.275562E-07
   1.413680E-07  -5.148103E-08
   6.527314E-08  -1.757631E-08
   2.274256E-07   8.959993E-09
   1.170633E-07  -6.318214E-08
   3.732440E-08  -2.924284E-08
   8.440027E-08   2.463392E-08
  -8.641867E-08  -5.693001E-08
  -6.999586E-08  -6.679748E-08
  -8.063457E-08  -7.812276E-08
   1.134304E-07  -5.626705E-09
   6.625360E-08  -1.570602E-07
  -1.208704E-07  -7.282459E-09
   4.037316E-09   2.420618E-08
  -2.905309E-08  -1.398561E-07
  -7.783139E-08  -1.469090E-07
  -5.346353E-08   9.802147E-09
   7.418685E-08   1.437247E-07
  -9.678163E-09   3.355903E-08
  -8.481632E-09   2.944044E-09
  -1.576921E-07   2.296647E-07
  -4.740565E-08   2.105250E-07
   1.213112E-08   8.091476E-08
  -1.208069E-07   9.343903E-08
  -7.608396E-08   5.884713E-08
   5.120021E-08   1.634039E-07
   1.274355E-07   1.902359E-07
   2.000040E-07   1.754308E-07
   3.904559E-08   9.413789E-08
   1.385816E-07   1.491619E-07
   1.323384E-07   1.015331E-07
   1.031429E-08  -1.705712E-08
  -5.253486E-08   1.541958E-08
  -8.151765E-08  -3.411422E-08
  -2.466517E-08   2.928920E-08
  -1.747376E-08  -8.095128E-09
  -3.362492E-08  -8.645171E-08
  -1.613247E-07   2.242984E-08
  -2.067454E-07  -6.643509E-08
  -1.021485E-07   4.652549E-08
  -1.587893E-07   1.058691E-08
  -1.313992E-07   6.479063E-11
  -8.136585E-08   1.505301E-07
  -1.678437E-07   1.432815E-08
  -6.981121E-08  -4.000130E-08
   6.790950E-08   8.336952E-08
   1.021244E-07   1.319568E-07
   2.518589E-07   2.117492E-07
   1.265460E-07   5.540178E-08
   1.334183E-07   2.309353E-08
   2.026857E-07   8.502645E-08
   1.552229E-07   1.178541E-07
   3.786652E-08   1.137089E-07
   1.091774E-07   6.953750E-08
   6.352267E-08   1.315582E-07
   3.007016E-09   1.126957E-07
   3.711291E-08  -3.643304E-08
  -3.418415E-08  -1.284742E-07
  -1.041052E-07  -3.317269E-08
   8.176931E-08  -8.527024E-09
