 Sweep Width = 8000 Hz
 Vector Size = 4096 points
 B0 Field = 3.997182e+02 MHz
 Ref Singlet = True
 $SEQPAR
 ECHOT = 24.
 HZPPM= 399.7182
 SEQ = 'sLASER'
 $END
 $NMID
 ID='1658'
 FMTDAT='(2E16.6)'
 BRUKER= T
 $END
   5.481528E-06   6.610092E-06
   1.193779E-05  -6.630463E-06
  -1.200845E-06  -9.579499E-06
  -9.665091E-06  -5.690662E-06
  -1.059195E-05   7.552691E-07
  -2.343403E-06   3.609248E-06
   4.035706E-06   2.488278E-06
   5.770223E-06  -5.426939E-07
   1.704910E-06  -1.638102E-06
  -1.732985E-06  -1.266061E-06
  -3.225375E-06  -1.788764E-07
  -1.597457E-06   7.328926E-08
  -5.974433E-07   3.061295E-07
  -1.992178E-07   1.107720E-06
  -8.326277E-07   2.549047E-06
   4.433069E-09   2.434933E-06
   4.898423E-07   6.913102E-07
   5.664900E-07  -1.343654E-06
  -9.508323E-07  -9.476992E-07
  -1.370759E-06   1.772745E-06
  -5.942107E-07   4.369635E-06
   1.280055E-06   3.836189E-06
   1.633350E-06   1.408780E-06
   1.493158E-06  -5.206422E-07
   1.503101E-06  -9.843043E-07
   2.637315E-06  -1.060117E-06
   2.548020E-06  -1.387992E-06
   6.620529E-07  -1.827710E-06
  -1.988534E-06  -1.405553E-06
  -2.452055E-06  -6.390232E-07
  -8.307683E-07  -2.972943E-07
   1.317854E-06  -9.208476E-07
   1.508415E-06  -1.662568E-06
  -1.717977E-07  -1.448525E-06
  -2.317128E-06  -2.276245E-07
  -2.707790E-06   6.971557E-07
  -1.448643E-06   9.236136E-07
   8.131937E-07  -2.553457E-07
   1.207211E-06  -1.282056E-06
   1.831526E-07  -8.968994E-07
  -9.695631E-07   6.908652E-07
  -6.518212E-07   1.289066E-06
   7.235965E-08  -9.479245E-08
   1.481016E-07  -1.836710E-06
  -9.472793E-07  -1.457486E-06
  -6.461495E-07   9.170026E-07
   8.623745E-07   2.537969E-06
   2.146890E-06   1.609651E-06
   1.363314E-06  -6.077255E-07
  -1.033266E-07  -1.870528E-06
  -8.062036E-07  -9.150900E-07
   3.253716E-07   6.824316E-07
   1.526658E-06   1.178915E-06
   1.167362E-06   2.497011E-07
  -2.754032E-07  -6.757984E-07
  -1.324584E-06  -9.080109E-07
  -1.328775E-06  -1.670760E-07
   3.666098E-07   7.453092E-07
   1.873502E-06   7.449426E-07
   1.717816E-06  -4.132524E-07
  -1.797573E-07  -1.136114E-06
  -1.870791E-06  -1.109803E-06
  -1.758282E-06  -3.504619E-07
  -4.185439E-07  -6.390351E-08
  -1.558342E-08  -2.014804E-07
  -4.314528E-07   3.281182E-07
  -7.458232E-07   1.360911E-06
   1.535206E-07   1.339968E-06
   1.012249E-06   1.608582E-07
   7.541888E-07  -1.325972E-06
  -3.280356E-07  -8.083388E-07
  -8.968483E-07   1.285598E-06
  -3.952735E-07   2.411582E-06
   6.281937E-07   1.568762E-06
   6.936477E-07  -4.183922E-07
   1.953015E-07  -1.659121E-06
  -4.440769E-07  -9.542593E-07
  -4.361593E-07   7.214274E-07
   3.131634E-07   1.949253E-06
   1.066065E-06   1.624165E-06
   9.665093E-07   4.369380E-08
   1.587238E-07  -1.450298E-06
  -5.435635E-07  -1.564095E-06
  -1.016381E-07  -5.765716E-07
   8.402324E-07   1.062258E-07
   1.225844E-06  -5.135583E-07
  -2.063374E-07  -1.193864E-06
  -1.660234E-06  -6.441043E-07
  -1.463258E-06   4.978789E-07
   2.851508E-07   9.846783E-07
   1.372486E-06   6.876768E-07
   1.365794E-06  -1.812660E-07
   4.703606E-07  -5.506183E-07
  -3.163014E-07  -5.476692E-07
  -5.120181E-07  -3.090012E-07
  -7.424164E-08   7.634027E-09
   5.220965E-07   4.997167E-07
   8.272337E-07   5.454762E-07
   3.618811E-07   1.210785E-07
  -3.213088E-07  -2.762749E-07
  -8.519678E-07  -1.555755E-07
  -3.837925E-07   1.268355E-07
   3.620670E-07   2.425593E-07
   5.256056E-07   3.778843E-07
   2.023811E-07   4.458655E-07
   1.350925E-07   1.944574E-07
  -6.667232E-08  -3.821237E-07
  -2.581247E-07  -9.947200E-07
  -4.642295E-07  -7.355587E-07
  -2.923050E-07  -7.918152E-08
   1.605037E-07   8.070001E-08
   2.189116E-07   2.739149E-08
  -4.729970E-07  -2.577554E-07
  -5.374606E-07  -1.891979E-07
   6.209608E-08  -8.220745E-08
   4.258476E-07  -4.439479E-07
   1.315976E-07  -3.978241E-07
  -4.561401E-07   1.249762E-07
  -6.002321E-07   6.741298E-07
  -1.293931E-07   7.840937E-07
   4.500745E-07   3.532996E-08
   4.408203E-07  -5.045267E-07
  -2.246523E-08  -2.956798E-07
  -4.187334E-07   1.903512E-07
  -7.865086E-07   8.151465E-07
  -4.456434E-07   1.043398E-06
   3.511717E-07   6.823090E-07
   7.954009E-07  -1.276968E-07
   3.626148E-07  -6.690768E-07
  -2.454961E-07  -3.182484E-07
  -4.326476E-07   6.967366E-07
   1.665184E-07   7.367317E-07
   5.465074E-07  -1.637598E-07
   2.739979E-07  -1.120207E-06
  -4.957922E-07  -8.812088E-07
  -5.977814E-07   6.559252E-08
  -1.568229E-07   4.899778E-07
   2.852520E-07   5.023303E-07
   9.014145E-08  -8.354877E-08
  -2.474718E-08  -4.935393E-07
  -6.471298E-08  -4.530659E-07
  -2.524568E-07  -3.708648E-07
  -2.459997E-07  -1.768785E-08
   1.950893E-08   1.847745E-07
   6.006550E-08  -2.568865E-08
  -3.263398E-08  -3.604351E-07
  -3.922486E-07  -2.994715E-07
  -2.130721E-07   2.317703E-07
   1.624884E-07   4.765838E-07
   4.928871E-07   4.941858E-08
   2.377020E-07  -4.879029E-07
  -3.045643E-07  -4.935701E-07
  -3.071524E-07  -2.797007E-07
   1.876422E-07  -1.405008E-07
   1.522958E-07  -7.711717E-08
  -1.050519E-07   1.790630E-07
  -1.171345E-07   5.604798E-07
   7.353902E-08   3.623699E-07
   1.381306E-07  -1.438502E-07
  -1.663191E-08  -5.119135E-07
  -1.423160E-07  -2.434098E-07
   8.733880E-08   1.824032E-07
   2.908401E-07   2.399590E-07
   2.142544E-07   1.483838E-07
   1.039084E-07   1.265963E-07
   2.226383E-07  -5.769854E-08
   7.738363E-08  -3.607568E-07
  -3.356632E-07  -4.164197E-07
  -5.431946E-07   4.611758E-08
  -2.936194E-07   4.533175E-07
  -7.986392E-08   3.200924E-07
  -1.111255E-07  -1.889481E-07
  -2.007519E-07  -3.201058E-07
  -2.355784E-07   8.352680E-08
   5.086404E-08   5.514812E-08
   1.140676E-07  -1.829458E-07
  -3.307243E-07  -1.648406E-07
  -4.715349E-07   7.127310E-08
  -2.053564E-07   5.978751E-08
   1.886884E-07  -2.773656E-07
   1.262638E-07  -3.703203E-07
   3.906732E-08  -2.781521E-07
   2.493736E-07  -3.368713E-08
   1.955692E-07  -7.397927E-08
  -6.689629E-08  -3.491519E-07
  -7.699774E-08  -1.446279E-07
   2.145726E-07   1.757631E-07
   4.866942E-07   3.959590E-09
   2.772384E-07  -2.188099E-07
  -7.926087E-08  -1.700483E-07
  -9.876117E-08   1.241713E-07
   1.096971E-07   1.010177E-07
   7.502700E-08  -6.802928E-08
  -1.895110E-07   8.075201E-08
  -1.625676E-07   4.030400E-07
   6.999809E-08   4.250028E-07
   6.945482E-08   2.606764E-07
  -1.937053E-08   5.137029E-09
  -3.030626E-07   1.151735E-07
  -1.600256E-07   1.723575E-07
   1.383128E-07   2.490257E-07
   3.194330E-08   1.454770E-07
  -2.373711E-07   2.117331E-07
  -1.250520E-07   3.293179E-07
   2.359009E-07   3.645026E-07
   3.516486E-07   1.296120E-07
   1.266722E-07   5.316258E-08
   3.963729E-08   2.386671E-07
   9.726770E-08   2.720687E-07
   1.344797E-07   9.338299E-08
  -2.000748E-08  -1.083748E-07
   1.442167E-07  -1.129099E-07
   2.449964E-07  -2.679408E-07
   1.537145E-07  -3.341065E-07
  -1.505958E-07  -1.604980E-07
  -2.539860E-07   3.471385E-08
  -2.156373E-08   1.689395E-07
   1.645202E-07  -1.191294E-07
   1.821567E-08  -4.953796E-07
  -3.713118E-07  -2.573379E-07
  -2.557641E-07   3.005073E-07
   1.087012E-07   3.275651E-07
   8.190734E-08   1.786716E-07
  -1.231685E-07  -1.433007E-07
  -1.158998E-07  -1.495120E-07
  -5.001267E-08  -3.669533E-08
  -6.799580E-08  -9.435545E-08
  -7.340569E-08   7.062952E-08
  -1.499789E-07   2.732600E-07
   1.142134E-07   1.952126E-07
   2.483489E-07  -1.251983E-08
  -1.497564E-09  -1.899200E-07
  -1.845256E-07  -8.316956E-08
   8.263549E-08   1.875194E-07
   2.108100E-07   9.560013E-08
   1.069554E-08  -2.416762E-07
  -2.760335E-07  -3.103544E-07
  -2.195659E-07  -4.687785E-08
   1.163319E-07  -1.338346E-07
  -3.353714E-09  -2.944112E-07
  -1.673423E-07  -2.055411E-07
  -1.647544E-07   1.632554E-08
  -1.034734E-07   6.518782E-08
   1.128852E-07  -9.761782E-08
  -1.648435E-07  -1.253570E-07
  -1.163818E-07   9.158584E-08
   1.511631E-07   3.499979E-07
   1.911078E-07   1.949313E-07
  -9.574887E-08  -2.060026E-08
  -2.070456E-07   2.037881E-07
  -5.682071E-08   4.565912E-07
   1.909708E-07   4.166207E-07
   1.131546E-08   3.044400E-07
  -1.306774E-07   3.070548E-07
   1.322066E-07   4.057700E-07
   1.851689E-07   2.634031E-07
   1.116213E-07   5.730239E-08
  -2.062247E-07   1.000249E-07
  -8.948596E-08   2.951067E-07
   1.860232E-07   2.972876E-07
   2.332172E-07   1.998249E-07
  -8.714879E-08  -5.997543E-08
  -2.925974E-07  -1.348138E-07
   4.342995E-08  -3.862245E-08
   1.774232E-07  -8.068312E-08
  -3.272874E-08  -1.436668E-07
  -3.052066E-07  -5.147296E-08
  -1.986869E-07   1.632673E-08
  -1.403202E-08  -2.819500E-08
  -1.030794E-07  -3.218727E-07
  -2.933510E-07  -2.868613E-07
  -3.102164E-07  -1.426144E-08
  -9.008195E-08   2.473652E-08
  -8.447427E-09  -1.386407E-07
  -1.601090E-07  -2.032892E-07
  -1.486012E-07  -1.645145E-07
   1.442400E-07   5.106056E-08
   1.710371E-07  -1.060976E-07
  -1.177975E-07  -1.900060E-07
  -8.855031E-08   8.114814E-08
   2.140057E-07   1.745247E-07
   3.218315E-07   4.233714E-08
   1.794428E-07  -1.406526E-07
   2.400166E-07  -8.565848E-08
   2.549992E-07   1.458031E-07
   3.497780E-07   1.159991E-07
   4.003711E-07  -6.560527E-08
   1.068517E-07  -8.289176E-08
  -2.450135E-08   1.603499E-07
   2.015049E-07   2.340548E-08
   2.018879E-07  -1.057783E-07
  -4.965764E-08   9.933752E-08
  -1.519497E-07   1.832049E-07
   1.638046E-09   1.814748E-07
   2.620356E-08  -6.392559E-08
  -1.015545E-07  -1.940943E-07
  -1.198790E-07  -3.039758E-08
   7.066068E-08   1.069249E-07
  -1.374557E-08   2.801018E-09
  -1.371366E-07  -1.332494E-07
  -2.947059E-07  -1.620269E-08
  -2.231118E-07   7.916184E-08
   1.513951E-07  -2.115622E-08
  -2.883125E-08  -1.721559E-07
  -2.774481E-07  -1.463407E-07
  -1.749170E-07   3.328346E-08
   2.257324E-08   3.102954E-08
   5.523979E-08  -1.466974E-07
  -3.418721E-08  -2.026194E-07
   1.650139E-08  -9.799675E-08
   3.477151E-08   5.337858E-08
   6.078043E-08  -9.343458E-08
   7.064520E-08  -2.277092E-07
   3.590812E-09  -8.736180E-08
  -2.154464E-08   1.209446E-07
