 Sweep Width = 8000 Hz
 Vector Size = 4096 points
 B0 Field = 3.997182e+02 MHz
 Ref Singlet = True
 $SEQPAR
 ECHOT = 32.
 HZPPM= 399.7182
 SEQ = 'sLASER'
 $END
 $NMID
 ID='1658'
 FMTDAT='(2E16.6)'
 BRUKER= T
 $END
   3.858567E-06   3.852708E-06
   8.732803E-06  -4.882552E-06
  -1.322286E-06  -6.904253E-06
  -7.594917E-06  -4.030895E-06
  -7.769749E-06   5.328241E-07
  -1.480606E-06   2.453573E-06
   3.203719E-06   1.203473E-06
   4.465830E-06  -1.051834E-06
   1.282509E-06  -1.465065E-06
  -1.243328E-06  -6.601100E-07
  -2.081518E-06   4.651634E-08
  -7.691603E-07  -2.584039E-07
  -4.206099E-07  -4.339708E-07
  -5.199279E-07   3.258840E-07
  -9.395279E-07   1.759649E-06
  -2.578632E-08   1.961498E-06
   5.096367E-07   5.887075E-07
   5.879475E-07  -1.339380E-06
  -6.449376E-07  -1.104151E-06
  -8.573936E-07   1.158444E-06
  -2.173282E-07   3.238019E-06
   1.144648E-06   2.762802E-06
   1.228132E-06   7.232696E-07
   9.553516E-07  -7.238408E-07
   1.399966E-06  -9.601623E-07
   2.367852E-06  -1.019131E-06
   2.283424E-06  -1.374388E-06
   6.555850E-07  -1.783472E-06
  -1.770871E-06  -1.310948E-06
  -2.005042E-06  -3.038712E-07
  -4.608335E-07   7.313255E-08
   1.461374E-06  -6.378713E-07
   1.382084E-06  -1.250344E-06
  -1.930518E-07  -8.450751E-07
  -2.094898E-06   6.080693E-07
  -2.343426E-06   1.690206E-06
  -8.634764E-07   1.475914E-06
   7.712052E-07   7.939513E-08
   7.342566E-07  -8.464041E-07
  -4.423425E-07  -3.248542E-07
  -1.606123E-06   1.448855E-06
  -9.539472E-07   2.264091E-06
  -1.108727E-08   9.706791E-07
   1.394164E-08  -7.412812E-07
  -7.181184E-07  -7.869102E-07
  -5.593231E-07   9.061611E-07
   6.532478E-07   2.026904E-06
   1.668744E-06   1.115719E-06
   9.719551E-07  -7.447997E-07
  -5.493944E-07  -1.563799E-06
  -9.809115E-07  -7.456231E-07
   1.733348E-07   2.551464E-07
   1.242171E-06   2.253432E-07
   1.100809E-06  -7.260939E-07
  -3.031907E-07  -1.392628E-06
  -1.322360E-06  -1.053649E-06
  -9.733649E-07  -2.919783E-07
   6.408681E-07   3.719721E-08
   1.757598E-06  -1.592427E-07
   1.470937E-06  -1.114176E-06
  -2.393664E-07  -1.511520E-06
  -1.640166E-06  -9.836897E-07
  -1.304824E-06  -2.953789E-07
   9.312468E-08  -1.521979E-07
   4.784344E-07  -2.617980E-07
  -4.696733E-08   1.017169E-07
  -6.229402E-07   9.431504E-07
  -1.499259E-07   9.831424E-07
   5.631845E-07  -4.727531E-08
   5.775407E-07  -1.015009E-06
  -2.154448E-07  -6.831820E-07
  -6.336577E-07   7.631296E-07
  -2.141032E-07   1.756804E-06
   5.024104E-07   1.240717E-06
   5.011790E-07  -8.065878E-08
   8.087370E-08  -8.863598E-07
  -3.320821E-07  -5.438962E-07
  -9.468531E-08   3.888135E-07
   5.051815E-07   1.173708E-06
   9.941323E-07   1.079700E-06
   5.650727E-07   1.725779E-07
  -9.248521E-08  -6.559860E-07
  -4.556995E-07  -6.630391E-07
  -4.126331E-09  -2.530240E-07
   7.091126E-07  -9.553705E-08
   3.888016E-07  -3.367374E-07
  -7.154728E-07  -3.171823E-07
  -1.416326E-06   1.929465E-07
  -9.850733E-07   9.374538E-07
   3.640962E-07   7.872995E-07
   9.309444E-07  -5.748972E-08
   4.192184E-07  -6.565118E-07
  -5.260858E-07  -3.844725E-07
  -8.592126E-07  -5.636716E-08
  -4.979107E-07  -1.257293E-08
   2.496820E-07   1.627598E-08
   6.245708E-07  -1.506862E-08
   6.724533E-07  -3.243583E-08
   2.371554E-07  -1.211215E-07
  -3.416010E-07  -2.089255E-07
  -4.880550E-07  -2.563493E-08
   1.341831E-08   1.612528E-07
   8.063566E-07   2.671727E-07
   1.013892E-06   1.765601E-07
   7.005080E-07   1.661144E-08
   4.634875E-07  -1.691551E-07
   9.141334E-09  -5.197869E-07
  -3.064355E-07  -7.240125E-07
  -2.709513E-07  -3.310833E-07
   1.902795E-07   2.405796E-07
   5.267586E-07   2.688767E-07
   4.393849E-07  -2.701993E-08
  -9.195409E-08  -5.399209E-08
  -1.311755E-07   7.168496E-08
   1.923641E-07   1.741697E-07
   5.194991E-07  -2.460357E-08
   3.078680E-07  -9.238093E-08
  -1.448041E-07   2.708834E-07
  -4.754984E-07   7.886829E-07
  -2.004561E-08   7.829735E-07
   2.346316E-07   2.605827E-07
   2.574321E-07  -2.034450E-07
  -1.467571E-08  -1.325553E-07
  -2.703083E-07   4.853098E-07
  -3.532869E-07   8.611625E-07
  -3.326626E-08   8.537959E-07
   3.705461E-07   3.340829E-07
   5.685536E-07  -5.337965E-07
   2.455834E-07  -7.422598E-07
  -2.369084E-07  -2.702528E-07
  -3.051816E-07   4.063677E-07
   3.430570E-09   4.255875E-07
   2.331287E-07  -3.040640E-07
  -2.041044E-07  -8.196085E-07
  -6.908097E-07  -5.924682E-07
  -3.634835E-07   4.610089E-08
   1.388853E-07   3.150905E-07
   4.215351E-07  -2.387342E-07
   9.179861E-08  -5.087425E-07
  -2.799880E-07  -4.665412E-07
  -3.605976E-07  -1.502738E-07
  -1.217458E-07   1.850868E-07
   2.095900E-07   2.567048E-07
   3.532439E-07   4.961349E-08
   1.679214E-07  -1.386634E-07
  -8.994574E-08  -3.206257E-07
  -3.455140E-07   8.881312E-08
   2.399734E-08   5.299751E-07
   4.553095E-07   4.943898E-07
   7.064334E-07   1.118395E-08
   3.527026E-07  -5.378861E-07
  -3.207274E-07  -5.026852E-07
  -4.236258E-07   5.366792E-09
  -5.035152E-08   2.423480E-07
   1.898356E-07   3.008460E-08
   3.260804E-07   1.093064E-08
   2.886839E-07   1.957899E-07
   3.044453E-07   9.919164E-08
   1.721220E-07  -1.698852E-08
   2.360348E-09  -1.998452E-07
   7.877660E-08   1.220282E-07
   2.301552E-07   1.346392E-07
   1.696198E-07   1.018771E-07
   2.574426E-07   1.008182E-07
   2.440465E-08   1.727355E-07
  -8.937215E-08   1.497726E-07
  -1.154027E-07  -1.121056E-07
  -3.499428E-07  -1.983133E-07
  -3.940726E-07   1.835519E-07
  -1.628013E-07   3.532126E-07
   5.643405E-08   3.776231E-07
  -6.615696E-08   1.640737E-07
  -2.301157E-07   5.121051E-08
  -9.559719E-08   2.418733E-07
   1.388409E-07   2.833127E-07
   1.190893E-07   3.623844E-08
  -1.375259E-07   1.883223E-07
  -3.428212E-07   3.558531E-07
  -6.986679E-08   3.248640E-07
   2.158709E-07  -1.028657E-08
   1.739098E-07  -2.297039E-07
   1.898536E-08  -4.098323E-08
   8.451747E-08  -3.542333E-08
   1.853015E-07  -1.527069E-07
   5.428538E-08  -2.347125E-07
  -1.816431E-07  -2.598189E-07
  -1.245244E-09  -9.962098E-08
   4.246814E-07  -1.368025E-07
   1.875430E-07  -3.127656E-07
  -9.110228E-08  -2.666760E-07
  -8.731703E-08  -4.027328E-08
  -7.064726E-09  -5.100514E-08
   9.124620E-08  -7.390128E-08
   5.950123E-08  -6.960937E-08
  -5.511032E-09   1.107273E-07
   1.578973E-07   2.007753E-07
   1.504598E-07  -2.029585E-08
   3.040415E-08  -1.131718E-07
  -2.279677E-07   1.776456E-07
  -8.382671E-08   3.408495E-07
   3.296876E-07   1.999015E-07
   2.455842E-07   1.647276E-07
  -1.262381E-07   2.397185E-07
  -5.824728E-08   4.388631E-07
   2.460045E-07   4.519471E-07
   2.974991E-07   2.209097E-07
   1.499143E-07   2.303604E-07
   1.075526E-07   1.645138E-07
   9.024420E-08   1.187986E-07
   3.312229E-08   4.044543E-08
  -1.395467E-07  -4.903593E-08
  -1.868575E-07   1.802975E-08
   1.545270E-08  -4.239794E-08
   7.440703E-08  -3.107319E-07
  -1.845176E-07  -2.793116E-07
  -3.307145E-07  -1.934765E-07
  -2.358424E-07  -2.471213E-08
  -2.390615E-07  -2.012062E-07
  -3.024917E-07  -2.541207E-07
  -4.251588E-07  -1.054916E-07
  -3.232412E-07   9.382248E-10
  -3.054592E-08   4.071725E-08
   5.104730E-08  -9.579881E-08
  -1.599791E-07  -1.506666E-07
  -3.397695E-07   6.186840E-08
  -1.154188E-07   1.357184E-07
   1.101414E-07   5.437245E-08
  -1.663943E-08   1.215070E-07
  -6.343605E-08   1.745227E-07
   2.022785E-07   2.928117E-07
   2.816961E-07   9.376572E-08
   2.514868E-07   3.763256E-08
   1.101438E-07   5.347363E-08
   1.639812E-07   1.348595E-07
   2.168365E-07   8.474035E-08
  -1.904984E-08  -2.423468E-08
  -2.402219E-07  -8.241136E-08
   2.041020E-08  -4.469638E-08
   2.093427E-07  -9.835932E-08
   2.181584E-07  -1.924469E-07
   1.420948E-08  -2.567936E-07
  -1.562465E-07   3.047009E-08
   9.298086E-08   1.340071E-07
   9.461505E-08  -1.069270E-08
  -4.250860E-08  -1.003681E-07
   4.933706E-08   1.025188E-08
   8.557829E-08  -1.769621E-09
   6.660182E-08   7.113375E-08
  -6.813641E-08   2.325986E-08
  -1.050435E-07   1.023023E-07
  -8.212708E-08   3.012143E-07
   2.279717E-08   8.388525E-08
  -3.267878E-08  -1.596372E-07
  -1.090522E-07   1.083290E-07
  -4.345864E-08   2.275547E-07
   2.295159E-08   1.634278E-08
   9.969809E-09  -1.604695E-07
  -1.167537E-07  -2.177961E-07
  -2.108392E-07   1.771006E-08
  -1.706970E-08   1.224462E-07
   7.959406E-08  -3.221826E-09
  -3.986223E-08  -7.475087E-08
  -6.046150E-08   6.677613E-08
  -7.603660E-09   4.522230E-08
   1.177843E-07  -2.343812E-07
   5.834329E-09  -2.403576E-07
  -7.854372E-08   5.237678E-09
  -2.124063E-08   1.225425E-07
  -5.879333E-09   1.215763E-07
   1.742528E-08  -7.636531E-08
  -2.542104E-08  -3.429638E-08
   2.735781E-08   1.904348E-07
   2.807327E-08   2.112413E-07
   1.122133E-07  -1.417484E-08
   2.768091E-08  -1.503915E-08
  -1.036515E-08   2.077768E-07
   7.071990E-08   1.061836E-07
   2.200397E-07  -1.430739E-07
   8.896978E-08  -1.989568E-08
   5.418748E-08   1.177266E-07
   2.681843E-07   1.798210E-07
   2.803327E-07  -6.083315E-08
   1.722117E-07  -2.086498E-07
   3.886854E-08  -4.569702E-09
   5.742053E-08   8.168046E-08
   2.365217E-07   9.103808E-08
   1.258353E-07  -4.295516E-08
  -1.087168E-07  -6.427467E-08
  -1.347515E-07   9.295978E-08
   2.193810E-08  -7.325495E-09
  -1.152864E-07  -1.808568E-07
  -2.193344E-07  -1.227844E-07
  -1.871473E-07   5.986153E-08
  -1.844417E-07   2.367020E-08
  -2.132320E-07  -1.897196E-07
  -2.435742E-07  -1.572797E-07
  -2.595501E-07  -1.130080E-07
  -4.904458E-08   3.273395E-08
  -9.201256E-08   2.055483E-08
  -1.531421E-07   2.689479E-08
  -1.757960E-07   1.013705E-07
  -1.625022E-07   1.039724E-07
   7.567609E-09   1.297633E-07
  -9.009446E-09  -1.426550E-07
  -2.245024E-07  -1.044334E-07
  -1.687361E-07   8.136850E-08
  -1.865016E-08   1.637980E-08
   9.305461E-09  -2.017173E-07
   6.269170E-09  -1.894366E-07
  -5.497468E-08  -1.150538E-07
   3.981334E-08  -9.538010E-08
   6.994622E-08  -2.290629E-07
  -3.219902E-08  -1.649323E-07
  -1.378144E-09  -2.210380E-07
   2.102595E-08  -1.499565E-07
