 Sweep Width = 8000 Hz
 Vector Size = 4096 points
 B0 Field = 3.997182e+02 MHz
 Ref Singlet = True
 $SEQPAR
 ECHOT = 40.
 HZPPM= 399.7182
 SEQ = 'sLASER'
 $END
 $NMID
 ID='1658'
 FMTDAT='(2E16.6)'
 BRUKER= T
 $END
   3.026239E-06   2.550388E-06
   5.747758E-06  -3.402574E-06
  -1.239562E-06  -4.277512E-06
  -5.319333E-06  -1.799102E-06
  -4.813137E-06   1.194715E-06
  -1.098165E-09   1.348181E-06
   2.738913E-06  -1.946555E-07
   2.601226E-06  -1.674688E-06
  -1.080893E-07  -1.174528E-06
  -1.443448E-06   4.866808E-08
  -1.463798E-06   6.845588E-07
  -2.724586E-07  -1.895563E-07
  -1.800867E-07  -8.592214E-07
  -1.031603E-06  -3.018546E-07
  -1.634956E-06   1.179827E-06
  -6.039388E-07   2.021925E-06
   4.219992E-07   1.142712E-06
   9.910523E-07  -6.028329E-07
  -1.518793E-07  -9.671611E-07
  -9.903369E-07   5.647743E-07
  -8.235289E-07   2.638013E-06
   3.392328E-07   2.597811E-06
   1.015452E-06   1.016870E-06
   1.019762E-06  -5.192023E-07
   8.745245E-07  -7.937787E-07
   1.321263E-06  -7.493118E-07
   1.438453E-06  -7.270212E-07
   4.387344E-07  -9.145958E-07
  -1.010058E-06  -7.325389E-07
  -1.348749E-06  -4.375345E-07
  -4.383148E-07  -4.433845E-07
   8.620100E-07  -6.598794E-07
   7.816442E-07  -7.955848E-07
  -1.329114E-07  -7.137911E-07
  -1.254426E-06   9.211466E-08
  -1.373778E-06   5.864455E-07
  -4.823828E-07   4.138335E-07
   4.209468E-07  -3.926153E-07
   3.547621E-07  -7.132965E-07
  -2.871173E-07  -1.471143E-08
  -9.420939E-07   9.703487E-07
  -5.262661E-07   1.322894E-06
   1.433111E-07   3.964892E-07
   1.694160E-07  -6.392083E-07
  -2.834148E-07  -3.182281E-07
  -2.682675E-07   8.649047E-07
   7.962006E-07   1.650352E-06
   1.598502E-06   8.920591E-07
   8.209275E-07  -5.932663E-07
  -2.283690E-07  -1.119088E-06
  -7.370599E-07  -3.773456E-07
  -2.429830E-09   5.109107E-07
   1.090171E-06   5.508737E-07
   1.091635E-06   1.956581E-08
   4.642664E-08  -7.401734E-07
  -8.314668E-07  -8.891029E-07
  -8.966436E-07  -1.918026E-07
   7.657250E-08   3.506259E-07
   8.991304E-07  -3.238205E-09
   6.985901E-07  -7.229340E-07
  -2.676921E-07  -9.922126E-07
  -1.228972E-06  -8.904226E-07
  -1.316061E-06  -2.184032E-07
  -4.800881E-07   1.879983E-07
   1.318650E-07   6.780561E-08
  -1.171120E-07   8.630168E-08
  -5.891619E-07   3.649043E-07
  -2.729766E-07   3.175325E-07
   2.278655E-07  -2.827861E-07
   2.425709E-07  -8.196253E-07
  -1.826326E-07  -5.197500E-07
  -3.891359E-07   4.247883E-07
  -7.386461E-08   1.052557E-06
   4.200284E-07   6.952170E-07
   5.066171E-07  -2.917323E-07
   2.013425E-07  -8.965508E-07
  -1.070504E-07  -4.058111E-07
   1.918793E-07   3.277332E-07
   6.537718E-07   8.948767E-07
   8.040225E-07   7.289247E-07
   4.420967E-07  -9.089432E-08
  -2.915926E-08  -5.089585E-07
  -4.305241E-07  -3.377160E-07
  -1.326635E-07   1.048626E-07
   6.424730E-07   4.010603E-07
   6.000257E-07   7.837330E-08
  -3.216685E-07  -4.130770E-07
  -1.019384E-06  -1.299888E-07
  -9.745482E-07   5.120323E-07
   2.004654E-08   7.061794E-07
   5.421586E-07   2.025047E-07
   1.767797E-07  -3.290033E-07
  -3.976554E-07  -2.611348E-07
  -6.769909E-07  -7.828412E-08
  -4.494813E-07   1.162071E-07
   6.205912E-08   2.018559E-07
   4.090293E-07  -3.603873E-11
   2.912379E-07  -8.805278E-08
  -2.580324E-07  -1.540307E-07
  -5.822026E-07  -1.490784E-07
  -5.530056E-07  -1.281112E-08
   4.466707E-08   2.385782E-07
   4.445957E-07   2.079516E-07
   5.547423E-07   4.843342E-08
   3.290229E-07   2.797578E-08
   1.651436E-07  -1.459927E-08
  -2.518301E-08  -1.327652E-07
  -1.002805E-07  -4.536602E-07
  -9.734137E-08  -3.758065E-07
   1.149169E-07  -1.737567E-07
   2.844373E-07  -6.866426E-08
   1.136509E-07  -1.784302E-07
  -9.722770E-08  -1.690971E-07
  -1.467580E-07  -2.878382E-08
   1.808281E-07  -3.268188E-08
   3.314359E-07  -3.770366E-07
   1.243097E-08  -4.381374E-07
  -5.386856E-07  -1.253383E-07
  -7.241933E-07   4.807403E-07
  -4.787706E-08   5.268859E-07
   2.787328E-07   2.474898E-07
   1.357778E-07  -2.162979E-07
  -2.417797E-08  -1.183205E-07
  -1.118399E-07   2.799450E-07
  -1.016189E-07   6.328714E-07
   1.468964E-07   5.886194E-07
   6.068404E-07   1.725662E-07
   6.333998E-07  -3.098156E-07
   2.757316E-07  -5.244038E-07
  -1.514349E-07  -2.290755E-07
  -2.642964E-07   3.407070E-07
   5.096552E-08   4.451414E-07
   3.247761E-07   3.247369E-08
   1.101152E-07  -4.198297E-07
  -2.932792E-07  -2.469551E-07
  -1.961690E-07  -2.334287E-08
   9.652875E-09   5.336345E-08
   1.280710E-07  -9.769507E-09
  -3.026209E-08  -3.724290E-07
  -2.680723E-07  -2.521341E-07
  -2.762495E-07  -6.795637E-08
  -1.800938E-07  -5.153512E-08
  -5.358649E-08  -6.238732E-08
   1.484624E-09  -1.804816E-07
  -1.027673E-07  -2.581075E-07
  -2.818869E-07  -1.489151E-07
  -3.877648E-07   7.836172E-08
  -1.347554E-07   2.059399E-07
   3.118952E-07   1.981256E-07
   3.477782E-07  -8.582915E-08
  -7.083037E-08  -4.307870E-07
  -3.875635E-07  -2.212271E-07
  -2.662456E-07   1.105619E-07
   1.160320E-07   9.952506E-08
   3.384435E-07  -1.178802E-08
   2.709106E-07  -1.482412E-07
   1.740498E-07  -1.385471E-07
   1.684200E-07  -1.980911E-08
   2.724282E-07  -1.737780E-07
   2.507168E-07  -3.196482E-07
   6.788643E-08  -1.407223E-07
   1.473488E-07   4.145181E-08
   2.032558E-07   9.476120E-08
   9.037808E-08   2.545321E-08
   6.790033E-08   1.433794E-07
   1.236248E-07   6.918613E-08
   7.805358E-08  -1.924135E-07
  -1.679341E-07  -1.641855E-07
  -3.450601E-07   1.036829E-08
  -2.466022E-07   2.510892E-07
  -1.714968E-07   2.163377E-07
  -1.132733E-07   6.424617E-08
  -1.286050E-07   8.219629E-08
  -1.233836E-08   7.226613E-08
   7.980781E-08   6.196978E-08
   9.960394E-08  -3.477375E-08
  -9.102740E-08   1.230415E-08
   2.135991E-08  -4.235680E-08
   2.245356E-07   4.650149E-08
   2.026824E-07   1.831159E-08
   1.324131E-07  -1.739060E-07
   1.966672E-07  -2.426433E-08
   2.061573E-07   2.992584E-08
   1.060904E-07  -1.668525E-07
  -8.425404E-09  -2.179984E-07
   1.478164E-07  -2.301201E-07
   1.179205E-07  -2.060128E-07
   2.188077E-07  -2.368297E-07
   1.870994E-07  -2.321916E-07
   7.512999E-08  -2.128374E-07
  -6.570891E-08   4.918530E-08
   5.782877E-08   1.770363E-07
   1.747524E-07  -3.843029E-08
   5.917575E-08   6.724758E-08
  -1.451655E-07   9.193702E-08
  -1.089283E-07   1.230222E-07
  -1.154165E-08   2.325404E-07
  -9.417804E-08   1.649054E-07
  -9.441594E-08   1.888243E-07
  -2.171533E-08   2.564545E-07
   1.173888E-07   1.342853E-07
   8.033083E-09   1.043638E-07
  -1.614130E-07   2.795013E-07
  -7.046932E-08   3.180160E-07
   7.053998E-08   1.276340E-07
   1.396684E-07  -4.686619E-08
  -8.208221E-09   4.259424E-08
   1.023152E-07   1.167661E-07
   1.837100E-07   2.424374E-08
   7.297911E-08  -1.271433E-07
   3.086761E-08  -1.391902E-07
   9.413775E-08  -1.458043E-07
   2.101210E-07  -2.132834E-07
   1.428423E-07  -2.285145E-07
  -1.580072E-07  -1.536905E-07
  -1.822993E-07  -7.197272E-08
   1.523804E-08   2.745256E-09
   7.958756E-08  -1.156895E-07
  -9.577072E-09  -2.503973E-07
  -2.629026E-07  -1.926204E-07
  -3.532314E-07   1.485861E-08
  -8.758396E-08   1.920199E-07
   9.535040E-08   1.289371E-07
  -9.173233E-08  -5.064304E-08
  -2.095684E-07   1.570975E-08
  -2.030945E-07   1.309968E-07
  -1.693284E-07   1.503107E-07
  -1.215204E-07   1.665089E-07
  -1.017171E-07   1.339209E-07
   1.101190E-07   2.588592E-08
   6.908820E-08  -7.627413E-08
   1.527257E-08  -1.044571E-07
  -3.040199E-08   1.573364E-08
   2.252640E-07   1.105542E-07
   3.321317E-07  -8.602621E-08
   1.901418E-07  -1.736187E-07
  -9.886768E-08  -1.406460E-07
  -3.182687E-08  -1.580475E-07
   2.380466E-08  -1.112360E-07
  -4.650123E-08  -2.163080E-07
  -6.879921E-08  -1.858827E-07
  -5.810459E-08  -9.010394E-09
   7.586212E-09  -1.468140E-09
  -5.192843E-08  -9.025116E-08
   3.794166E-09  -1.701886E-07
  -1.391397E-08   3.417985E-08
  -6.726877E-08  -3.330149E-08
   5.746402E-08  -5.819238E-08
  -6.913497E-08  -6.547063E-08
  -2.249026E-07  -6.939262E-08
  -1.363805E-07   6.707085E-08
   9.333239E-08   1.364074E-07
   6.722731E-08   3.199875E-09
  -4.071337E-09   1.234167E-08
   1.312884E-07   6.254070E-08
   9.518276E-08   5.885728E-08
   7.702555E-08   3.590270E-08
   1.821238E-08  -9.481920E-08
  -1.551218E-08   9.375698E-08
   1.916428E-07   2.014975E-07
   1.327186E-07   5.440776E-08
  -3.727269E-08   4.544240E-08
   1.084637E-07   8.849980E-08
   4.457541E-08   1.032291E-07
   3.520975E-08  -7.025435E-08
  -9.896440E-09  -9.790965E-08
  -2.172330E-07  -2.093554E-08
  -1.163983E-07   1.796650E-07
   1.445117E-08   1.198055E-07
  -9.377956E-08  -2.059345E-07
  -1.581396E-07  -2.446626E-07
  -1.344653E-07   3.575438E-08
  -4.715509E-08   8.931923E-08
  -8.525535E-08   1.349213E-07
  -6.279251E-08   1.593683E-07
   6.869402E-08   9.400747E-08
   1.965059E-07   1.294463E-07
   3.021032E-08   1.108598E-07
  -1.251117E-07   1.480352E-07
  -3.256020E-08   1.504901E-07
   9.949629E-09   2.092225E-07
   1.320736E-07   9.598331E-08
   3.004633E-08  -1.138223E-07
   9.142735E-09  -5.398948E-08
  -2.464189E-08   9.130253E-08
  -2.774484E-08   5.424938E-08
   5.661428E-08  -5.199910E-08
   5.346139E-08  -5.656130E-08
   1.028633E-07   5.155744E-08
   1.556316E-07   6.433181E-08
   2.231136E-07  -1.450107E-07
  -2.321401E-08  -2.010173E-07
  -2.122702E-07  -8.876478E-08
  -5.775321E-09   6.468648E-09
   3.222651E-08  -1.523508E-08
  -1.437968E-07  -1.679107E-07
  -1.485900E-07  -6.651167E-08
  -1.171303E-07  -1.173330E-07
   2.124107E-08  -3.336157E-08
  -2.623670E-08   9.873446E-09
  -4.821903E-08  -8.836510E-08
   6.500796E-08  -6.662864E-08
   1.256285E-07  -6.825453E-08
   6.209522E-08  -6.984304E-08
  -8.771394E-08  -1.520028E-08
  -8.880427E-08   6.492604E-08
   1.426060E-07   6.522815E-08
   6.348684E-08   9.502946E-08
  -1.664237E-07  -4.071439E-08
  -1.201276E-07  -7.240503E-08
   1.359737E-07   5.282241E-08
   1.949199E-07  -1.178188E-07
  -8.375960E-08  -2.253768E-07
   7.844200E-10  -7.687856E-08
   1.286757E-07   9.692137E-08
