 $SEQPAR
 ECHOT = 40.
 HZPPM= 399.7182
 SEQ = 'STEAM'
 $END
 $NMID
 ID='1658'
 FMTDAT='(2E15.6)'
 BRUKER= T
 $END
   1.696633E-06   2.335085E-06
   4.959934E-06  -2.285852E-06
   1.098550E-07  -3.994713E-06
  -3.494748E-06  -2.312089E-06
  -4.062300E-06   4.772474E-07
  -7.970761E-07   1.424601E-06
   1.646858E-06   3.661360E-07
   2.011407E-06  -1.164211E-06
   2.170468E-07  -1.247864E-06
  -8.955211E-07  -3.426053E-07
  -9.780049E-07   3.093883E-07
  -2.415478E-07  -8.471973E-08
  -3.134871E-07  -4.759070E-07
  -7.697382E-07  -2.292325E-07
  -1.108927E-06   7.466040E-07
  -4.240097E-07   1.398667E-06
   3.842038E-07   9.726255E-07
   7.968491E-07  -1.499124E-07
   4.968723E-08  -5.736235E-07
  -6.443914E-07   3.108526E-07
  -6.239740E-07   1.665972E-06
   2.690355E-07   1.960784E-06
   7.777870E-07   1.082159E-06
   9.097543E-07   8.165282E-08
   8.620987E-07  -1.262467E-07
   1.416550E-06  -1.916238E-07
   1.533525E-06  -5.998375E-07
   6.457131E-07  -1.192827E-06
  -8.311032E-07  -1.076482E-06
  -1.269853E-06  -2.668425E-07
  -4.467984E-07   2.722977E-07
   7.066252E-07  -2.052767E-07
   7.519419E-07  -9.137953E-07
  -2.191437E-07  -9.712693E-07
  -1.238289E-06  -2.846769E-07
  -1.212491E-06   4.598972E-07
  -3.878829E-07   4.304772E-07
   3.427766E-07  -3.057784E-07
   2.584609E-07  -8.338379E-07
  -4.640157E-07  -5.356039E-07
  -1.112645E-06   4.181131E-07
  -7.011127E-07   9.820291E-07
   4.758597E-08   7.003275E-07
   3.609667E-07  -1.307319E-07
  -8.519932E-08  -4.540880E-07
  -3.399081E-07   2.392147E-07
   1.413648E-07   1.144307E-06
   9.505570E-07   8.630388E-07
   8.959316E-07  -1.557404E-07
   8.690200E-08  -7.605962E-07
  -4.084623E-07  -2.669065E-07
   8.228896E-08   4.202171E-07
   7.323378E-07   4.324292E-07
   8.303213E-07  -1.482249E-07
   4.506173E-08  -5.709300E-07
  -6.139618E-07  -4.431546E-07
  -5.102302E-07   2.259466E-08
   1.570468E-07   1.781679E-07
   6.050163E-07  -2.397404E-08
   5.183869E-07  -5.263170E-07
  -2.317531E-07  -8.563719E-07
  -8.132049E-07  -5.608639E-07
  -8.389781E-07  -8.420342E-08
  -2.846042E-07   1.591116E-07
   3.114722E-08   2.881396E-08
  -1.681199E-07  -7.487587E-08
  -5.316794E-07   2.572973E-07
  -3.537499E-07   6.426936E-07
   2.605929E-07   3.691959E-07
   4.966405E-07  -2.878146E-07
  -6.274156E-08  -3.824377E-07
  -4.859805E-07   2.875471E-07
  -3.674219E-07   1.066779E-06
   2.783364E-07   9.471914E-07
   5.349749E-07   1.094027E-07
   2.298563E-07  -5.772031E-07
  -1.263067E-07  -5.160872E-07
  -5.400913E-08   1.368266E-07
   2.901837E-07   6.954459E-07
   5.826906E-07   5.966162E-07
   4.718024E-07  -1.247989E-08
   6.334869E-08  -5.115986E-07
  -2.736858E-07  -5.865803E-07
  -1.816309E-07  -1.741602E-07
   2.787921E-07   7.720484E-08
   5.675435E-07  -2.339870E-07
   8.308081E-08  -6.563537E-07
  -7.325399E-07  -5.951049E-07
  -9.892217E-07   1.129389E-07
  -3.257843E-07   6.712743E-07
   3.832737E-07   3.027276E-07
   4.230361E-07  -2.863245E-07
  -2.334626E-07  -3.631226E-07
  -6.549132E-07  -5.028194E-08
  -4.091762E-07   3.010885E-07
   1.294547E-07   3.502527E-07
   3.838790E-07   1.725152E-07
   3.404804E-07   1.367626E-08
  -1.618342E-08  -7.854884E-08
  -2.919694E-07  -6.242551E-08
  -3.366124E-07   7.721059E-08
  -5.220678E-08   2.140873E-07
   3.802822E-07   2.825815E-07
   6.441757E-07   1.239269E-07
   4.215111E-07  -4.009419E-09
   1.390380E-07  -3.974130E-08
   8.694801E-08  -1.503427E-07
   1.011864E-07  -3.389057E-07
  -4.627063E-08  -3.740678E-07
  -1.647645E-08  -2.523393E-07
   1.133219E-07  -1.899169E-08
   1.388498E-07  -3.867607E-08
  -7.454491E-08  -1.546397E-07
  -2.326025E-07  -9.554235E-08
  -1.437568E-07   4.325405E-08
   9.432931E-08  -2.814373E-08
   6.719333E-08  -1.953949E-07
  -2.953079E-07  -1.888467E-07
  -5.464743E-07   1.450397E-07
  -3.719255E-07   3.462658E-07
  -2.445947E-08   2.617133E-07
   1.700051E-07  -2.519816E-08
   3.253226E-08  -1.643264E-08
  -1.604910E-07   1.072725E-07
  -2.207254E-07   2.673485E-07
  -4.467196E-08   3.717215E-07
   1.637683E-07   3.140817E-07
   4.182266E-07   4.813729E-08
   3.774625E-07  -2.631657E-07
   1.276284E-08  -2.903768E-07
  -2.497872E-07   7.356635E-08
  -4.297383E-08   3.616901E-07
   3.085628E-07   1.955390E-07
   3.370582E-07  -2.306790E-07
   1.207721E-08  -4.412453E-07
  -2.223660E-07  -2.023752E-07
  -8.089100E-08   1.291902E-07
   1.127538E-07   6.324031E-08
   8.077128E-08  -1.361829E-07
  -1.340632E-07  -1.922173E-07
  -1.872601E-07  -8.961538E-08
  -6.798227E-09   1.954333E-08
   9.932383E-09   8.426682E-08
  -2.040642E-08   5.371118E-08
  -1.018254E-07   3.885781E-08
   2.654843E-09  -4.943490E-08
  -2.781155E-09  -5.354961E-08
  -8.432542E-08   1.348066E-07
  -7.398250E-09   2.386478E-07
   1.257392E-07   2.075790E-07
   1.430654E-07   9.034001E-08
   3.173134E-08  -4.001900E-08
  -4.302204E-08   4.813852E-08
   1.475699E-07   9.517654E-08
   1.681907E-07  -2.006033E-08
   7.020649E-08  -5.572798E-08
  -6.407668E-08   1.190502E-07
   2.235285E-08   2.631550E-07
   1.739731E-07   6.517996E-08
   8.056871E-08  -2.619416E-07
  -1.035465E-07  -2.523822E-07
  -1.685769E-07  -5.216471E-09
  -2.151625E-08   1.185406E-07
   5.279298E-08   3.600722E-08
  -8.159211E-08  -1.090026E-07
  -9.193230E-08  -1.175809E-07
  -1.131578E-07  -1.719766E-07
  -2.088186E-07  -1.617615E-07
  -2.676052E-07  -8.539022E-08
  -2.689309E-07   9.860125E-08
  -1.384162E-07   2.297981E-07
   6.262348E-08   7.422568E-08
  -1.099722E-08  -6.922309E-08
  -1.448004E-07   2.033863E-08
  -5.462388E-08   2.160491E-07
   8.431880E-08   1.528792E-07
   2.012971E-08   3.189934E-08
  -9.044513E-08   1.031477E-08
  -1.078587E-08   1.453125E-07
   2.019556E-07   1.391437E-07
   1.760725E-07  -6.622355E-08
   9.833789E-08  -1.419712E-07
   7.928316E-08   1.006193E-07
   1.153476E-07   8.080872E-08
   1.188099E-07  -1.062595E-07
   9.484994E-09  -1.711798E-07
  -3.899191E-08  -1.397349E-07
   8.009260E-08  -9.728948E-08
   1.247955E-07  -1.354107E-07
  -8.580104E-10  -1.772902E-07
  -1.775094E-07  -7.099104E-08
  -1.104488E-07   6.715840E-09
  -5.922582E-08  -2.741511E-08
  -6.633880E-09  -1.231026E-07
  -8.535469E-08  -3.301236E-08
  -1.019736E-07   6.101156E-08
   3.221188E-09   5.932844E-08
   3.127390E-09  -8.587107E-08
  -1.630584E-07  -5.027172E-08
  -1.657514E-07   1.437237E-07
   2.080860E-08   2.496359E-07
   1.115393E-07   1.261726E-07
  -4.641223E-08   6.140401E-08
  -4.226576E-08   8.964599E-08
   9.534493E-08   1.397802E-07
   1.869531E-07   7.196109E-08
   1.682987E-07  -3.363263E-08
   7.685249E-08   4.980674E-08
   5.970266E-08   1.655529E-07
   1.513734E-07   2.121894E-08
   4.806550E-08  -1.149775E-07
  -1.611154E-08  -1.189851E-07
   1.639769E-08  -5.500048E-08
   8.747933E-08  -5.183641E-08
   4.097300E-08  -2.119937E-07
  -1.321256E-07  -1.828837E-07
  -1.928657E-07  -7.032441E-08
  -4.832004E-08  -6.635888E-08
   1.145664E-08  -1.304470E-07
  -1.311952E-07  -1.484307E-07
  -2.417264E-07   2.067749E-08
  -1.385378E-07   1.393188E-07
  -1.076213E-08   5.507248E-08
  -1.908171E-09  -5.743681E-08
  -5.594678E-08  -4.076406E-08
  -7.417171E-08   9.148584E-08
  -1.666477E-08   9.617381E-08
  -4.839172E-08   4.261217E-08
  -4.869523E-08   1.280339E-07
   8.979241E-10   1.949204E-07
   1.431050E-07   1.133563E-07
   2.329663E-07   3.556021E-09
   6.062658E-08  -6.014236E-08
   1.462333E-08  -6.843776E-09
   1.215196E-07  -2.735287E-08
   1.381913E-07  -1.166874E-07
  -3.934013E-08  -1.195370E-07
  -8.527328E-08  -7.603191E-08
   5.968226E-09   4.519010E-08
   7.841451E-08  -9.405853E-08
   9.246014E-09  -1.828035E-07
  -1.180577E-07  -1.252111E-08
  -5.795704E-08   6.783946E-08
   7.355920E-08   4.659138E-08
   2.676958E-08  -1.044657E-07
  -7.736485E-08  -1.039266E-07
  -9.906093E-08   5.466373E-08
  -8.186207E-11   8.684685E-08
   1.847234E-08   8.415284E-09
  -7.689079E-08   1.582934E-08
  -4.784534E-08   1.326613E-07
   6.983655E-08   2.214271E-07
   9.643479E-08   8.238054E-08
   4.192466E-08   2.397146E-08
  -2.620438E-08   6.291006E-08
   4.545860E-08   5.647490E-08
   7.784292E-08  -3.880716E-08
   9.159981E-09  -1.175070E-07
  -4.935107E-08   1.185578E-08
   3.622673E-08   8.375626E-08
   6.361843E-08   5.086545E-08
   9.846790E-08  -7.751077E-08
  -3.869318E-08  -1.139293E-07
  -2.707165E-08  -5.412983E-09
   7.837760E-08   1.142240E-09
   5.476986E-08  -1.047901E-07
  -7.402810E-08  -1.593239E-07
  -1.160173E-07   6.821234E-09
  -5.568381E-08   5.607052E-08
   9.100929E-09  -2.341536E-08
  -9.294017E-08  -1.128990E-07
  -1.336554E-07  -2.405380E-08
  -1.136054E-07   9.632201E-08
  -7.246464E-10   3.946091E-08
  -3.838700E-08  -1.367404E-08
  -1.456607E-07   8.319058E-08
  -6.542182E-08   1.652459E-07
   9.220634E-09   1.681938E-07
  -3.289425E-08   2.425601E-08
  -6.950531E-08   6.437305E-09
  -4.363549E-08   1.484335E-07
   1.128945E-07   7.643242E-08
   1.236851E-07  -5.215905E-08
   5.515036E-08  -9.354341E-08
  -2.279538E-08  -2.074400E-08
   7.856533E-08   3.014087E-08
   1.144428E-07  -2.380391E-08
   5.372546E-08  -1.482140E-07
  -4.351068E-09  -9.435440E-08
   5.410429E-09   2.851790E-08
   1.581936E-07  -5.853829E-08
   1.135680E-07  -1.448894E-07
  -5.960372E-09  -1.251171E-07
  -3.591718E-08  -5.629448E-08
  -4.393410E-08  -4.330545E-08
  -5.455338E-08  -1.439123E-07
  -1.270995E-07  -7.853467E-08
  -1.242416E-07   3.368099E-08
  -3.514236E-08   6.269772E-08
   8.634617E-09  -2.210972E-08
  -7.564220E-08  -2.446466E-08
  -4.900051E-08   8.015341E-08
   2.611401E-08   1.637722E-07
   7.947961E-08   6.593917E-08
   2.608957E-08  -2.711762E-08
  -3.345658E-08   1.852469E-08
   5.538457E-09   1.012196E-07
   9.336988E-08   4.584126E-08
   5.871395E-08  -5.592295E-08
  -5.401850E-08   3.913626E-08
  -3.842127E-08   6.453013E-08
   9.417802E-08  -9.731348E-09
   9.905010E-08  -1.042553E-07
  -2.786275E-08  -1.374133E-07
  -1.297509E-07  -4.256102E-09
  -3.408374E-08  -5.713357E-09
   3.230320E-08  -4.815588E-08
  -7.147824E-08  -6.766771E-08
