 $SEQPAR
 ECHOT = 24.
 HZPPM= 399.7182
 SEQ = 'STEAM'
 $END
 $NMID
 ID='1658'
 FMTDAT='(2E15.6)'
 BRUKER= T
 $END
   3.999256E-06   6.656691E-06
   1.031314E-05  -4.650108E-06
   1.346088E-07  -8.608941E-06
  -7.584709E-06  -5.391861E-06
  -8.966099E-06   1.139451E-06
  -2.740932E-06   4.209097E-06
   2.711543E-06   2.849952E-06
   4.560076E-06  -3.820077E-07
   1.932294E-06  -1.513203E-06
  -3.663841E-07  -1.364913E-06
  -1.761285E-06  -5.122009E-07
  -1.338368E-06  -2.649420E-07
  -9.854995E-07   2.971441E-07
  -4.241166E-07   9.152358E-07
  -5.204975E-07   1.660351E-06
   7.607563E-08   1.746176E-06
   7.169640E-07   9.178705E-07
   1.015245E-06  -7.263491E-07
  -2.878146E-07  -1.104968E-06
  -1.271555E-06   4.849637E-07
  -1.050248E-06   3.007707E-06
   8.087012E-07   3.496613E-06
   1.888714E-06   1.740716E-06
   1.730028E-06  -4.609886E-07
   1.136190E-06  -8.059172E-07
   1.814326E-06  -5.826869E-07
   2.023672E-06  -1.038337E-06
   7.750374E-07  -1.859817E-06
  -1.462736E-06  -1.494137E-06
  -2.011306E-06  -2.937976E-07
  -6.385355E-07   2.442423E-07
   1.030413E-06  -6.101807E-07
   8.229996E-07  -1.513761E-06
  -5.193591E-07  -1.368616E-06
  -1.849246E-06  -1.365048E-07
  -1.847375E-06   6.780810E-07
  -1.036349E-06   6.897071E-07
   1.952004E-07  -2.075763E-08
   6.591074E-07  -6.355057E-07
   1.134649E-07  -6.907153E-07
  -9.764431E-07   2.226863E-07
  -9.600600E-07   1.045958E-06
  -3.017952E-07   7.222887E-07
   1.994597E-07  -5.123171E-07
  -3.395140E-07  -9.185721E-07
  -6.081016E-07   4.236302E-07
   3.033448E-07   1.905376E-06
   1.625290E-06   1.265211E-06
   1.384845E-06  -6.165629E-07
   8.843949E-08  -1.594992E-06
  -7.065627E-07  -6.310100E-07
   2.700615E-07   5.499398E-07
   1.413116E-06   4.244821E-07
   1.058381E-06  -6.269624E-07
  -4.416602E-07  -1.018367E-06
  -1.157633E-06  -5.169624E-07
  -7.303930E-07   1.818204E-07
   4.429686E-07   3.699502E-07
   1.134512E-06   1.260383E-07
   1.080463E-06  -4.247637E-07
   7.484535E-08  -9.107371E-07
  -9.885097E-07  -9.413199E-07
  -1.403245E-06  -3.611192E-07
  -7.239888E-07   9.120857E-08
  -1.337676E-07   2.776896E-07
  -3.312006E-07   3.166834E-07
  -7.566336E-07   9.226206E-07
  -1.085354E-07   1.425924E-06
   9.318225E-07   5.907502E-07
   9.739406E-07  -9.870590E-07
  -4.424902E-07  -1.221625E-06
  -1.432782E-06   3.291206E-07
  -7.202467E-07   1.942959E-06
   7.579763E-07   1.511924E-06
   1.048077E-06  -3.690192E-07
   6.334076E-08  -1.568153E-06
  -7.381537E-07  -9.235372E-07
  -4.279519E-07   3.300711E-07
   2.277268E-07   1.173191E-06
   6.888438E-07   1.032788E-06
   7.105218E-07   1.915670E-07
   3.844920E-07  -8.180859E-07
  -2.629677E-07  -1.097712E-06
  -2.870667E-07  -5.205399E-07
   2.708189E-07   1.208545E-07
   6.339540E-07  -2.080399E-07
  -1.247331E-07  -8.887187E-07
  -1.445803E-06  -7.574982E-07
  -1.813221E-06   5.639591E-07
  -4.217045E-07   1.395028E-06
   1.009714E-06   7.667125E-07
   9.931215E-07  -4.578835E-07
  -2.525596E-07  -8.345770E-07
  -8.854940E-07  -3.370756E-07
  -5.562849E-07   1.149213E-07
   1.398261E-07   2.144530E-09
   3.272739E-07   3.705159E-08
   3.516961E-07   2.331858E-07
   3.483989E-07   1.140766E-07
   3.599000E-08  -2.843971E-07
  -5.256694E-07  -4.031466E-07
  -3.650171E-07  -7.434606E-09
   3.584142E-07   4.043888E-07
   8.678289E-07   2.441977E-07
   6.521277E-07  -3.580203E-10
   2.543599E-07   1.990764E-08
   1.723507E-07  -6.161476E-08
   2.514329E-07  -5.247861E-07
  -2.018226E-09  -7.334119E-07
  -1.352464E-07  -2.588485E-07
   8.370850E-08   3.095349E-07
   3.642901E-07   1.831362E-07
  -5.284722E-08  -2.586392E-07
  -6.004178E-07  -2.939218E-07
  -2.993921E-07   2.800602E-07
   4.504612E-07   2.735545E-07
   4.950620E-07  -2.031129E-07
  -1.844550E-07  -1.901948E-07
  -7.306690E-07   3.496289E-07
  -4.652871E-07   7.219454E-07
   2.406477E-07   3.975768E-07
   4.232495E-07  -1.808128E-07
   7.844344E-08  -1.753263E-07
  -1.806787E-07   2.169732E-07
  -2.548390E-07   3.917146E-07
  -2.260278E-07   3.724112E-07
  -8.222474E-08   3.678128E-07
   3.960607E-07   1.856016E-07
   6.458505E-07  -1.683788E-07
   2.417871E-07  -5.032234E-07
  -3.453472E-07  -7.839736E-08
  -1.968212E-07   4.599942E-07
   2.938806E-07   2.238336E-07
   3.238333E-07  -6.142403E-07
  -2.194835E-07  -9.086233E-07
  -5.627873E-07  -1.991079E-07
  -2.856234E-07   5.385676E-07
   2.227081E-07   3.444725E-07
   9.706624E-08  -2.193835E-07
  -2.539144E-07  -4.084748E-07
  -2.331860E-07  -2.120814E-07
   8.104557E-08  -1.356824E-07
  -1.462375E-08  -2.072045E-07
  -3.139615E-07  -3.832200E-09
  -2.930318E-07   2.681786E-07
   6.371064E-09   1.550776E-07
  -1.315456E-08  -6.249603E-08
  -1.678981E-07   7.285823E-08
  -1.268139E-08   4.716199E-07
   3.951061E-07   3.879309E-07
   2.776138E-07  -8.802973E-08
  -1.748066E-07  -2.796965E-07
  -3.639682E-07   5.005718E-08
   1.202857E-07   2.578651E-07
   4.610745E-07   3.848320E-08
   1.175977E-07  -1.902677E-07
  -2.666168E-07   1.477425E-07
  -7.845662E-08   4.340900E-07
   2.877952E-07   2.734146E-07
   2.320041E-07  -2.703071E-07
  -2.063304E-07  -2.831333E-07
  -1.575851E-07   2.069159E-07
   1.782431E-07   3.791134E-07
   2.304548E-07   1.827167E-07
  -5.575769E-08   4.709076E-08
  -1.651438E-07   1.076628E-07
   1.404369E-08  -6.438750E-09
  -3.564188E-08  -2.299390E-07
  -3.549202E-07  -7.285786E-08
  -4.335911E-07   3.314193E-07
  -6.003334E-08   4.579133E-07
   2.259498E-07   5.933734E-08
  -4.338631E-08  -2.469582E-07
  -2.258848E-07  -4.758026E-08
  -5.646033E-08   2.864091E-07
   2.732905E-07   1.481872E-07
   9.805159E-08  -1.337312E-07
  -3.155213E-07  -3.672900E-08
  -2.219250E-07   2.491875E-07
   2.846913E-07   2.004992E-07
   4.150208E-07  -1.237240E-07
   1.431457E-07  -2.318013E-07
  -7.883446E-08   2.626408E-08
   5.509048E-08   7.688252E-08
   1.325226E-07  -1.806128E-07
  -1.189151E-08  -2.988627E-07
  -5.749062E-08  -4.785989E-08
   2.349782E-07   6.109680E-08
   3.687762E-07  -1.678496E-07
   3.506444E-08  -4.219236E-07
  -3.246122E-07  -2.304877E-07
  -1.096269E-07   9.955659E-08
   1.737568E-07  -7.806195E-09
   6.371733E-08  -2.243248E-07
  -2.878444E-07  -7.187369E-08
  -2.329849E-07   2.850745E-07
   9.294344E-08   1.895768E-07
   1.115855E-07  -2.557134E-07
  -2.144208E-07  -2.696914E-07
  -2.394533E-07   9.585404E-08
   1.859318E-08   2.881587E-07
   1.516438E-07   7.556450E-08
  -1.486538E-07  -6.964643E-08
  -2.514838E-07   1.029407E-07
  -6.709619E-09   2.995356E-07
   2.403129E-07   6.072940E-08
   1.170598E-07  -1.351910E-07
  -1.566121E-07  -4.911500E-08
  -1.404165E-07   1.735035E-07
   1.100108E-08   8.410039E-08
  -6.178360E-08  -2.307759E-07
  -1.538134E-07  -2.100556E-07
  -3.896707E-08   1.073596E-07
   1.565118E-07   4.244996E-08
   2.912690E-08  -2.161820E-07
  -3.566560E-07  -2.401871E-07
  -4.034027E-07   4.973647E-08
  -4.207655E-08   1.067922E-07
   9.141834E-08  -2.994177E-07
  -1.596933E-07  -3.941763E-07
  -4.288131E-07  -2.173588E-08
  -1.804491E-07   2.982207E-07
   2.024238E-07   1.017026E-07
   1.104237E-07  -3.592829E-07
  -2.116734E-07  -2.222382E-07
  -1.840627E-07   1.332630E-07
   3.082278E-08   1.372822E-07
   2.444050E-08   1.224630E-08
  -1.101730E-07   2.344519E-08
  -1.524860E-08   2.050632E-07
   1.924184E-07   1.535202E-07
   2.932034E-07  -2.091335E-07
   1.319168E-08  -2.353045E-07
  -1.453157E-07   1.038798E-07
   1.075140E-07   1.957276E-07
   1.743826E-07  -8.801702E-08
  -5.477482E-08  -2.531086E-07
  -1.347541E-07  -4.048375E-08
   1.107613E-07   1.599112E-07
   2.990562E-07  -4.229344E-08
   1.165056E-07  -2.342201E-07
  -2.585033E-07  -5.084639E-08
  -2.159304E-07   1.972270E-07
   1.723283E-07   1.224619E-07
   1.221360E-07  -8.837889E-08
  -1.385323E-07  -1.048725E-07
  -1.573553E-07   2.231547E-07
   4.242546E-08   2.861151E-07
   3.683408E-08  -3.516171E-09
  -4.598505E-08  -1.004496E-07
  -1.514733E-07   2.149124E-07
   5.870241E-08   3.771630E-07
   1.572723E-07   1.161192E-07
   1.833817E-08  -6.479185E-08
  -1.376010E-07   8.157913E-08
   4.362500E-08   1.965563E-07
   1.863247E-07   8.425104E-09
   9.005412E-08  -1.689385E-07
  -8.970571E-08   3.434961E-08
  -5.294343E-08   2.605009E-07
   2.142673E-07   1.704268E-07
   2.100923E-07  -1.912006E-07
  -1.574749E-07  -2.195373E-07
  -1.362114E-07   2.876373E-08
   1.622869E-07   1.067803E-07
   2.057789E-07  -1.569937E-07
  -1.174323E-07  -2.469594E-07
  -2.417877E-07  -5.214841E-08
  -2.058522E-08   8.644820E-08
   1.255679E-07  -1.002171E-07
  -1.102139E-07  -3.012686E-07
  -2.912493E-07  -7.060596E-08
  -1.150392E-07   2.092097E-07
   3.975163E-08   1.199904E-07
  -4.860209E-08  -1.007952E-07
  -1.711774E-07  -1.527564E-08
  -4.128279E-08   1.585253E-07
   2.112975E-07   1.442131E-07
   1.929719E-07  -1.023257E-07
  -2.182247E-08  -8.961218E-08
  -5.227325E-08   1.993938E-07
   2.189560E-07   1.591001E-07
   3.095717E-07  -1.185076E-07
   9.249609E-08  -1.697528E-07
  -3.331800E-08   6.767482E-08
   1.849284E-07   1.747595E-07
   2.532832E-07  -6.225470E-08
   7.415846E-08  -2.432345E-07
  -1.537307E-07  -7.755125E-09
   6.423568E-08   1.984761E-07
   2.642117E-07   1.070425E-07
   1.297828E-07  -1.831450E-07
  -1.082466E-07  -1.827009E-07
  -8.665210E-08   3.824387E-08
   5.336196E-08   7.248117E-08
   7.667295E-08  -1.150671E-07
  -7.944711E-08  -3.523913E-08
  -1.249044E-07   1.591215E-07
   1.115072E-07   1.361484E-07
   1.030065E-07  -8.239699E-08
  -1.160719E-07  -1.591176E-07
  -1.351406E-07   9.057497E-08
   7.506451E-08   2.834650E-07
   2.558968E-07  -2.060123E-08
   2.221142E-08  -1.512071E-07
  -1.844596E-07  -1.670491E-08
  -4.687714E-08   1.936785E-07
   1.966882E-07   1.056030E-07
   1.075835E-07  -8.803869E-08
  -7.731572E-08  -3.635255E-08
  -4.246702E-08   1.799642E-07
   1.800356E-07   9.983453E-08
   1.692177E-07  -1.705143E-07
  -7.616292E-08  -1.414920E-07
  -1.221249E-07   4.509192E-08
   1.098222E-07   1.163848E-07
   1.143026E-07  -4.533250E-08
  -4.102445E-08  -1.473597E-07
