 $SEQPAR
 ECHOT = 60.
 HZPPM= 399.7182
 SEQ = 'STEAM'
 $END
 $NMID
 ID='1658'
 FMTDAT='(2E15.6)'
 BRUKER= T
 $END
   5.474871E-07   4.282938E-07
   1.352439E-06  -6.953987E-07
  -1.286058E-07  -1.003093E-06
  -1.185328E-06  -3.470573E-07
  -1.082549E-06   4.573860E-07
   1.668105E-07   4.900072E-07
   9.029733E-07  -2.250199E-07
   6.943565E-07  -8.834038E-07
  -1.538005E-07  -7.486143E-07
  -6.267552E-07  -4.315292E-08
  -4.523301E-07   3.671711E-07
  -2.632737E-08   2.053624E-07
  -5.846522E-08  -1.861525E-07
  -3.852528E-07  -2.223223E-07
  -6.085047E-07   3.199977E-07
  -2.758448E-07   7.719584E-07
   2.124461E-07   4.869528E-07
   3.998812E-07  -1.026650E-07
   9.832826E-08  -3.227157E-07
  -3.319640E-07   1.317678E-08
  -4.028354E-07   6.399082E-07
  -5.106511E-08   8.365594E-07
   1.680228E-07   5.296524E-07
   2.968633E-07   1.682878E-08
   3.656343E-07  -1.205652E-07
   4.869438E-07  -1.096145E-07
   5.414595E-07  -2.244673E-07
   3.544745E-07  -3.466749E-07
  -3.877402E-08  -3.790532E-07
  -2.570310E-07  -1.408676E-07
  -2.995281E-08  -4.411711E-08
   3.936731E-07  -2.341887E-07
   3.279174E-07  -4.910887E-07
  -2.590459E-08  -5.270841E-07
  -3.914178E-07  -2.455464E-07
  -3.729753E-07   1.195317E-07
  -6.607495E-08   2.005103E-07
   2.020928E-07  -6.594915E-08
   4.710549E-08  -3.201719E-07
  -3.345075E-07  -2.053602E-07
  -5.421095E-07   2.088545E-07
  -3.704613E-07   5.384181E-07
   3.224871E-08   3.497593E-07
   1.780354E-07  -2.223606E-08
  -4.737506E-08  -8.972210E-09
  -1.649996E-07   2.743469E-07
   6.054698E-08   4.932423E-07
   3.786436E-07   3.609482E-07
   3.106852E-07  -1.362951E-07
  -1.301025E-07  -3.555023E-07
  -3.610133E-07   7.324829E-08
  -2.771092E-08   4.878740E-07
   4.683171E-07   3.782160E-07
   5.995979E-07  -8.305037E-08
   3.324697E-07  -4.404314E-07
  -1.386606E-07  -3.835078E-07
  -3.728434E-07  -1.270638E-07
  -1.379502E-07   1.068689E-09
   1.641743E-07  -5.516675E-08
   1.596700E-07  -2.860945E-07
  -1.729675E-07  -4.098155E-07
  -3.466245E-07  -2.183281E-07
  -2.322227E-07   2.546156E-08
  -5.993583E-08   5.992562E-08
   4.869202E-08  -1.644796E-07
  -1.466436E-07  -2.227359E-07
  -3.939038E-07   4.181731E-08
  -2.102832E-07   2.913033E-07
   1.951932E-07   2.340441E-07
   2.177707E-07  -8.570236E-08
  -3.978749E-08  -1.906771E-07
  -2.894780E-07   1.184531E-07
  -2.225463E-07   5.110720E-07
   2.259724E-07   5.661501E-07
   3.969935E-07   2.183627E-07
   3.117674E-07  -1.491808E-07
   1.314187E-07  -2.280174E-07
  -1.568486E-08  -3.726931E-08
   1.559261E-07   1.853205E-07
   3.269489E-07   1.930244E-07
   2.493224E-07   1.849231E-08
   3.082027E-08  -2.049069E-07
  -1.256865E-07  -2.012331E-07
  -6.858499E-08  -7.545525E-08
   1.142806E-07  -2.464654E-08
   2.879503E-07  -1.711691E-07
   1.309263E-07  -3.236897E-07
  -2.722082E-07  -2.727293E-07
  -4.372521E-07  -7.087211E-08
  -2.594654E-07   1.360607E-07
  -4.317538E-08   1.155447E-07
   9.336767E-09  -6.411383E-08
  -1.889162E-07  -7.206553E-08
  -2.565881E-07  -5.903507E-08
  -1.925422E-07   6.094153E-08
  -1.842745E-08   1.981243E-07
   7.164131E-08   1.159799E-07
   1.149484E-07   9.376580E-08
   1.812427E-07   8.037170E-08
   7.052828E-08   3.806380E-08
  -4.520283E-08   3.156358E-09
  -4.534000E-08   1.689566E-08
   8.148063E-08   6.463614E-08
   2.415541E-07   4.991189E-08
   2.170519E-07   6.281313E-08
   2.351202E-07   2.122844E-08
   1.214844E-07  -1.031867E-07
   3.361240E-08  -2.077792E-07
  -5.824553E-08  -1.339783E-07
  -6.530317E-08  -1.271122E-08
   5.552148E-08   3.256101E-08
   1.564706E-07  -5.755198E-08
   4.782702E-08  -2.121835E-07
  -1.426324E-07  -1.704192E-07
  -1.970418E-07  -1.175444E-07
  -1.220626E-07  -1.544168E-08
  -1.254324E-07  -3.213845E-08
  -1.981586E-07   1.727855E-08
  -2.459163E-07   8.331565E-08
  -1.774263E-07   1.370685E-07
  -6.688175E-08   2.123980E-07
  -1.112990E-08   2.055423E-07
   5.371171E-08   1.132734E-07
   1.176686E-08   1.012080E-07
  -1.142879E-07   1.757670E-07
  -3.901334E-08   1.860060E-07
   1.388319E-07   1.879346E-07
   2.376568E-07   5.086088E-08
   2.148420E-07  -6.354125E-08
   1.297883E-07  -5.513204E-08
   2.956600E-08  -3.411587E-08
  -2.132469E-08   9.316017E-08
   1.025630E-07   1.156715E-07
   1.913604E-07  -7.743519E-09
   1.016275E-07  -1.024641E-07
   2.046031E-08  -1.749898E-07
  -5.204172E-10  -1.245352E-07
  -9.473888E-09  -9.589071E-08
  -3.450559E-08  -1.353439E-07
  -1.346756E-07  -8.058330E-08
  -1.496881E-07  -2.579130E-08
  -1.273167E-07   8.090801E-08
  -1.259822E-07   4.980770E-08
  -5.500454E-08   2.024773E-08
  -2.333487E-08   1.158150E-08
  -5.007007E-08  -2.963907E-08
  -9.605255E-08   3.707610E-08
  -3.477506E-08   7.404314E-08
  -6.378317E-09   8.702814E-08
  -2.116584E-09   2.832562E-08
  -2.617705E-09  -1.971732E-09
  -5.758386E-08   1.195814E-09
  -8.124970E-09   6.588470E-08
   1.313474E-07   7.807456E-08
   1.931124E-07  -1.084331E-08
   1.600851E-07  -7.808867E-08
   9.112498E-08  -7.163138E-08
   1.936001E-07  -5.468109E-08
   9.288179E-08  -1.084329E-07
  -2.061742E-08  -1.526883E-07
  -5.372092E-08  -1.089097E-07
  -1.927312E-08  -8.480949E-09
   3.442192E-08  -1.965632E-08
  -7.470963E-08  -9.155662E-08
  -6.672537E-08  -5.302610E-08
  -4.007417E-08   5.628132E-09
  -7.232511E-08  -2.769980E-08
  -1.171689E-07  -4.942780E-08
  -1.044448E-07   3.334854E-08
  -1.480038E-07   4.293965E-09
  -1.218883E-07   5.924098E-08
   1.925224E-08   8.821570E-08
  -7.104778E-09   7.824898E-08
  -4.390087E-08   9.258330E-08
   1.991977E-08   8.816580E-08
  -1.907165E-08   5.043176E-08
  -8.270142E-09   5.641812E-08
  -3.788904E-08   8.191213E-08
  -3.120964E-09   1.168940E-07
   1.219905E-07   2.260093E-08
   1.533137E-07  -4.553357E-08
   7.409458E-08  -1.092300E-08
   6.304611E-08  -5.302873E-08
   1.027521E-07   1.069821E-08
   8.632908E-09  -4.851437E-08
   1.383998E-09  -8.391574E-08
  -4.714850E-08  -2.636558E-08
   5.364993E-09  -4.799037E-08
   8.543240E-08  -1.264728E-07
   2.212993E-08  -1.113813E-07
  -5.540070E-08  -1.904823E-08
  -4.641075E-08   7.523762E-08
  -2.449922E-08   1.675216E-08
   4.644839E-09   1.098562E-08
   3.640762E-08  -2.372866E-08
  -5.778138E-08  -9.778942E-09
  -2.333388E-08   8.923399E-09
  -3.867988E-08   7.005955E-08
  -1.543725E-07   1.184426E-07
  -5.610525E-08   1.199769E-07
   4.461747E-08   1.510139E-07
   5.111180E-08   1.366672E-08
   2.547520E-08   2.238952E-09
   3.430966E-10   3.549778E-08
   3.723554E-08  -1.080742E-08
   5.429318E-08   4.077482E-08
   4.234147E-08  -2.617608E-08
   6.684826E-08  -2.418564E-08
   1.130363E-07  -5.612596E-08
   8.691211E-08  -7.840431E-08
   5.149584E-08  -5.763266E-08
   1.701136E-08  -4.212287E-08
   9.967693E-09  -5.044435E-08
   7.508187E-08  -1.233944E-07
   8.511793E-09  -1.180155E-07
  -2.061471E-08  -1.286514E-07
  -9.498579E-08  -1.209357E-07
  -4.395027E-08  -6.016671E-08
  -6.098508E-09  -2.712836E-08
  -7.473200E-08  -1.252089E-07
  -1.048903E-07  -5.132775E-08
  -1.496320E-07   1.284468E-08
  -1.222182E-07   3.119466E-08
  -5.439456E-08  -2.803796E-08
  -9.659808E-08   1.061429E-08
  -6.343688E-08   5.397347E-08
   4.720743E-08   5.672417E-09
  -2.664259E-09   4.105550E-08
  -4.698810E-08   7.491370E-08
  -7.838242E-10   6.482839E-08
   7.027889E-08   6.893350E-08
   1.242763E-07   1.778842E-08
   8.780473E-08  -2.054895E-08
   1.202436E-07  -4.287307E-09
   7.922755E-08   1.194457E-08
   6.886078E-08  -2.479639E-08
   7.992766E-08  -5.784597E-08
   5.170842E-08  -5.535344E-08
  -1.654616E-08  -8.016138E-08
  -4.710754E-10  -5.223088E-08
   1.251559E-08  -6.046022E-08
  -7.549193E-08  -4.504793E-08
  -7.065830E-08   1.165195E-08
  -2.375686E-08   3.391075E-08
  -4.588562E-08  -1.893659E-08
  -3.229291E-08  -4.406037E-08
  -2.367913E-08   2.903430E-08
   1.627026E-08   1.793191E-09
   5.571591E-10   1.772634E-08
  -7.465191E-08   1.866513E-08
  -3.577028E-08   4.863333E-08
   3.173795E-08   7.907488E-08
   2.643153E-08  -1.223964E-08
   2.438424E-08   4.630557E-09
  -2.380061E-09  -4.144047E-09
   7.746161E-08   2.246747E-08
   7.390302E-08   2.726290E-08
  -1.898320E-08   1.683873E-08
   7.016640E-08   3.284700E-08
   1.114374E-07   1.276997E-08
   1.470098E-08   1.071576E-08
   6.141250E-10  -4.284464E-08
  -3.676474E-08  -3.094910E-08
  -1.557472E-09   5.478605E-09
   2.060225E-09  -9.351209E-08
   1.877051E-08  -8.574125E-08
   2.446245E-08  -4.275250E-08
  -6.938438E-08  -3.686660E-08
  -7.638536E-08  -1.967068E-08
  -6.401654E-08  -3.176510E-08
  -1.023926E-08   3.430499E-09
  -5.093312E-08  -2.396303E-08
  -6.703657E-08  -4.006029E-09
  -1.994609E-08   1.278116E-08
  -7.231937E-08   2.296975E-09
  -9.411626E-08   5.337031E-08
  -4.080982E-08   1.057685E-07
  -1.466046E-08   2.050031E-08
  -6.101055E-09   1.139802E-08
  -4.900698E-09  -7.131808E-09
  -2.093048E-08   2.317677E-08
   7.487969E-08   5.359259E-08
   1.096935E-07   3.033164E-08
   9.582661E-08   2.929528E-08
   9.894693E-08   2.392760E-08
   9.411172E-08  -4.968370E-09
   1.064157E-07   5.927563E-09
   6.456372E-08   6.822603E-09
   4.270358E-08   5.650563E-09
   8.227580E-08   1.217257E-08
   9.597522E-08  -6.966649E-08
   1.555033E-08  -9.609983E-08
  -5.271320E-08  -1.081792E-07
  -5.839332E-08  -5.501309E-08
  -6.898651E-08  -1.015833E-08
  -6.288278E-08   5.969203E-09
  -6.394585E-08  -4.973638E-08
  -2.314264E-08  -3.246965E-08
   2.963620E-08  -1.773704E-08
  -3.679060E-08   2.393337E-09
  -4.861520E-08   3.388032E-08
  -4.048899E-08   6.028008E-08
   1.425809E-08   8.925438E-08
   5.521262E-08   2.759730E-08
   7.708216E-08   4.885006E-08
   6.072076E-08   2.954984E-08
   3.006003E-08   4.798755E-08
   1.421410E-08   5.389620E-08
   6.911154E-10  -3.083523E-08
  -1.036029E-08  -2.137090E-08
  -6.693644E-09   3.582098E-09
   9.275199E-08   1.108041E-10
   6.686234E-08  -2.810735E-08
   1.252196E-08  -3.340171E-08
   8.481285E-09  -1.931179E-08
   2.419102E-09  -3.919847E-08
   2.983581E-08  -6.690483E-08
   1.057272E-08  -3.379648E-08
