 $SEQPAR
 ECHOT = 52.
 HZPPM= 399.7182
 SEQ = 'STEAM'
 $END
 $NMID
 ID='1658'
 FMTDAT='(2E15.6)'
 BRUKER= T
 $END
   8.656575E-07   1.058231E-06
   2.499912E-06  -1.226875E-06
  -1.617526E-07  -1.864991E-06
  -1.964654E-06  -7.418476E-07
  -1.869434E-06   7.699931E-07
   1.583779E-07   7.907707E-07
   1.403306E-06  -4.270204E-07
   1.136462E-06  -1.494029E-06
  -3.717508E-07  -1.149745E-06
  -1.030902E-06  -1.033338E-07
  -7.810085E-07   5.830044E-07
  -2.585936E-08   2.225071E-07
   2.863278E-08  -3.474950E-07
  -4.767387E-07  -3.989884E-07
  -9.837734E-07   2.861108E-07
  -5.966600E-07   8.833461E-07
   1.662307E-07   7.860136E-07
   6.218813E-07  -6.666654E-08
   1.833681E-07  -5.322908E-07
  -4.566992E-07   4.584852E-08
  -5.946146E-07   1.031829E-06
  -5.930117E-08   1.330323E-06
   4.542856E-07   8.380675E-07
   6.450749E-07   1.196592E-07
   5.824195E-07  -1.140007E-07
   8.571126E-07  -1.608776E-07
   8.615327E-07  -2.710494E-07
   4.102637E-07  -4.972983E-07
  -2.813013E-07  -4.088134E-07
  -5.118077E-07  -1.535747E-07
  -7.912944E-08  -1.655705E-08
   4.502053E-07  -2.795741E-07
   3.631565E-07  -6.374340E-07
  -1.604927E-07  -5.545615E-07
  -6.879742E-07  -3.813063E-08
  -6.027154E-07   3.762202E-07
  -9.025519E-08   2.710131E-07
   2.228319E-07  -2.860360E-07
   2.446122E-09  -6.126992E-07
  -5.633505E-07  -3.818895E-07
  -8.257721E-07   3.490455E-07
  -4.194436E-07   7.942555E-07
   1.768675E-07   5.380949E-07
   3.133265E-07  -8.181597E-08
  -7.956315E-08  -2.982742E-07
  -2.704116E-07   1.534788E-07
   1.365053E-07   7.069528E-07
   6.512672E-07   4.435159E-07
   5.390371E-07  -2.110482E-07
  -7.776492E-09  -4.936229E-07
  -4.461909E-07  -1.648779E-07
  -5.256121E-08   3.694908E-07
   5.953969E-07   4.340740E-07
   8.463565E-07  -8.428426E-08
   3.030376E-07  -5.898332E-07
  -2.819178E-07  -6.119655E-07
  -4.946859E-07  -2.419689E-07
  -1.402953E-07   8.173270E-08
   3.118510E-07  -9.805323E-09
   3.232496E-07  -3.917844E-07
  -9.925443E-08  -5.488397E-07
  -5.041545E-07  -3.331772E-07
  -4.716358E-07   5.848655E-08
  -1.694977E-07   1.645505E-07
   5.366122E-08  -4.018056E-08
  -7.254654E-08  -2.040386E-07
  -4.169195E-07   6.827454E-08
  -3.244795E-07   4.180144E-07
   2.468255E-07   3.687270E-07
   4.379806E-07   1.338502E-08
   4.992986E-08  -1.645146E-07
  -3.686107E-07   1.359250E-07
  -3.291571E-07   6.872117E-07
   1.106792E-07   7.479261E-07
   4.123981E-07   2.905749E-07
   3.457307E-07  -2.245680E-07
   7.930799E-08  -3.153480E-07
   2.152808E-08   5.346067E-08
   1.646777E-07   3.894740E-07
   3.877234E-07   3.593964E-07
   3.445984E-07   5.578734E-08
   2.446335E-08  -2.378982E-07
  -2.828934E-07  -3.138035E-07
  -1.993415E-07  -6.323340E-08
   1.881667E-07   1.534154E-07
   4.483471E-07  -7.180228E-08
   1.471010E-07  -4.557688E-07
  -3.747495E-07  -4.730767E-07
  -6.709746E-07  -5.544662E-08
  -4.240847E-07   2.188459E-07
  -1.663559E-08   1.798449E-07
   1.187746E-07  -9.482797E-08
  -1.458338E-07  -2.538094E-07
  -3.133831E-07  -1.330778E-07
  -2.206227E-07   7.705110E-08
  -2.226580E-08   1.671038E-07
   1.289060E-07   1.442777E-07
   2.075401E-07   1.513524E-07
   9.459017E-08   2.573921E-08
  -5.218453E-08  -7.266715E-08
  -1.651967E-07  -3.540161E-08
  -5.220702E-08  -1.252952E-08
   1.640158E-07   1.231044E-07
   3.155475E-07   1.596029E-07
   3.729256E-07   8.380060E-08
   1.895080E-07  -4.959215E-08
   5.545689E-08  -1.057119E-07
   3.852324E-08  -2.003591E-07
  -7.348804E-08  -2.519201E-07
  -1.824912E-08  -8.363740E-08
   9.290495E-08   1.364612E-08
   1.336357E-07  -6.918497E-08
  -3.891801E-09  -1.883800E-07
  -1.279223E-07  -2.297358E-07
  -1.421968E-07  -7.221855E-08
   2.728966E-09  -3.313250E-08
  -2.959544E-08  -3.761046E-08
  -2.016527E-07  -7.753016E-08
  -3.246834E-07   9.336522E-08
  -2.886136E-07   2.770315E-07
  -7.406127E-08   2.862689E-07
   9.704931E-08   1.790614E-07
   4.000088E-08   1.152894E-07
  -5.623198E-08   1.744412E-07
  -7.960678E-08   1.763957E-07
  -2.864157E-08   2.557753E-07
   1.060138E-07   2.387655E-07
   2.713117E-07   1.143108E-07
   3.399729E-07  -5.166469E-08
   1.668241E-07  -1.584637E-07
  -8.523176E-08  -5.591477E-08
  -8.104061E-08   1.651334E-07
   9.550943E-08   9.918367E-08
   2.326083E-07  -1.571249E-07
   1.004766E-07  -2.213161E-07
  -5.391540E-08  -1.885516E-07
  -5.072168E-08  -1.531802E-07
  -9.540228E-08  -1.349228E-07
  -1.029821E-07  -2.008313E-07
  -1.239493E-07  -2.112949E-07
  -2.321546E-07  -7.730033E-08
  -1.870710E-07  -2.071386E-08
  -7.738967E-08  -7.131596E-08
  -1.116040E-07  -1.283982E-08
  -8.148475E-08   2.915190E-08
  -5.490299E-08  -4.391700E-08
  -3.782203E-08  -4.508616E-08
  -9.108122E-08   4.759060E-08
  -9.855960E-08   2.442401E-07
   2.822412E-08   2.039405E-07
   3.024921E-08   5.659774E-08
   1.500016E-09  -6.314735E-09
   8.390889E-10   1.268923E-07
   8.575309E-08   1.566559E-07
   2.166794E-07   1.184659E-07
   1.617897E-07   4.591045E-08
   1.238388E-07  -3.380490E-08
   1.338967E-07   1.595528E-08
   7.726340E-08  -1.617796E-08
   4.604975E-08  -8.173623E-08
  -4.885857E-08  -2.482791E-08
   2.366132E-08   8.637112E-08
   1.419198E-07   3.614131E-08
   1.787470E-07  -1.502122E-08
  -1.746488E-08  -7.571408E-08
  -9.041668E-08  -8.496654E-08
  -9.057626E-08  -3.180402E-08
  -1.420757E-07  -3.929109E-08
  -1.828373E-07  -3.766130E-08
  -1.376624E-07   6.207540E-08
  -1.049324E-07   1.101159E-07
  -5.252390E-08   6.701192E-08
  -6.489543E-08   6.010421E-08
  -1.233264E-07   1.252839E-07
  -3.489288E-08   7.165218E-08
   7.290812E-08  -9.095964E-09
   6.819684E-09  -1.822840E-08
  -9.082045E-08  -2.660678E-09
   1.536327E-08   1.039831E-07
   1.482547E-07   7.802503E-08
   2.144305E-07  -2.114371E-08
   1.279553E-07  -6.772358E-08
   4.708223E-08  -8.671977E-08
   5.947368E-08  -4.005929E-08
   5.674331E-08  -5.287053E-08
   4.186302E-08  -1.441063E-07
   1.076632E-08  -9.406616E-08
   9.798989E-09  -6.576438E-08
  -2.579062E-08  -1.284493E-07
   2.051897E-08  -9.644813E-08
  -5.558770E-08  -8.359381E-08
  -3.231543E-08  -4.777049E-08
   3.567075E-08  -3.039681E-08
  -7.113130E-08  -2.231983E-08
  -8.819254E-08  -3.025377E-08
  -7.986023E-08   4.001354E-08
  -8.180212E-08   9.257337E-08
  -5.051820E-08   5.513420E-08
  -8.858636E-08   6.190784E-08
  -1.313363E-07   1.260410E-07
  -2.105958E-08   1.216719E-07
   7.449165E-08   1.061279E-07
   8.532017E-09   3.538989E-08
  -4.474146E-08   5.704087E-08
   3.342928E-08   1.006233E-07
   1.233992E-07  -8.400732E-09
   6.523476E-08  -2.046977E-08
   2.763156E-08  -2.451867E-08
   2.283394E-08  -7.025565E-10
   9.948029E-08  -2.587212E-08
   1.084692E-07  -6.484662E-08
   9.340473E-08  -1.085116E-07
   5.406010E-09  -9.390886E-08
  -1.274926E-08  -8.899294E-08
  -1.051584E-08  -1.000151E-07
  -7.591325E-08  -7.331905E-08
  -4.397489E-08   6.411518E-08
   4.152434E-08   2.181179E-08
   4.361903E-09  -7.577772E-08
  -1.314164E-07  -9.227550E-08
  -1.583812E-07   4.053082E-08
  -1.200384E-07   1.217015E-07
  -2.011503E-08   7.259856E-08
   1.023400E-09   4.019907E-09
  -8.660477E-08  -3.430138E-08
  -8.687197E-08   1.109475E-08
  -4.060283E-08   2.888186E-08
  -9.206078E-08   2.212967E-08
  -4.794801E-08   6.130092E-08
   4.975270E-08   8.668252E-08
   1.244088E-07   5.949151E-08
   1.169666E-07  -4.642191E-08
   7.093411E-08  -1.186958E-07
   9.545709E-08  -5.967396E-08
   1.383544E-07  -4.831779E-08
   1.108894E-07  -1.462782E-07
   8.296472E-09  -1.444735E-07
   2.045259E-08  -9.532625E-08
   3.020666E-08  -7.803566E-08
   1.250726E-07  -8.320579E-08
  -2.378930E-08  -1.481039E-07
  -1.377072E-07  -8.307306E-08
  -8.711810E-08  -1.523486E-08
  -3.323144E-08   7.543035E-09
  -2.126106E-08  -4.122216E-08
  -8.201571E-08  -1.150173E-07
  -3.501275E-08  -4.707073E-08
   9.371915E-09   3.326451E-08
  -4.667217E-08   5.805394E-08
  -1.081415E-07   5.494925E-08
  -1.269143E-07   1.032300E-07
  -6.931911E-08   1.402140E-07
   9.499264E-08   1.456937E-07
   4.251915E-08   6.952985E-08
   2.187528E-08   4.439247E-08
   7.382819E-08   1.123652E-07
   6.615235E-08   7.264750E-08
   7.531195E-08  -2.720840E-08
  -1.438386E-08  -1.564944E-08
   1.910285E-08   4.297201E-08
   8.583936E-08   9.485350E-09
   1.411424E-07  -6.362005E-08
   4.415973E-08  -3.475765E-08
   5.200089E-09  -1.499600E-08
   7.611251E-09   1.065587E-08
  -1.291723E-08  -1.062737E-07
  -3.682610E-08  -5.226274E-08
   1.223291E-08   5.509701E-08
  -5.391333E-10   7.080687E-08
  -7.544483E-08  -2.503179E-08
  -8.559408E-08  -5.504985E-08
  -7.865195E-08  -3.445590E-08
  -4.364912E-08   3.691342E-08
   3.660236E-08   6.308001E-08
   2.671315E-08   1.500901E-08
  -4.460828E-08   8.914883E-09
  -1.926399E-08   5.272730E-08
  -1.729029E-08   5.284706E-08
  -6.498802E-08   3.026829E-08
  -4.471392E-08   8.618155E-08
  -1.276852E-08   1.293631E-07
   6.947204E-08   9.203101E-08
   7.057956E-08   1.382589E-08
   5.390678E-08  -5.206349E-08
   4.003060E-09   1.216813E-08
   4.574556E-08   4.717003E-08
   9.668165E-08  -7.078522E-08
   3.970435E-08  -1.145182E-07
   2.207277E-08  -5.884222E-08
   3.571991E-08  -7.397119E-08
   7.274562E-08  -1.058830E-07
   5.633910E-08  -1.578229E-07
  -5.161571E-08  -8.599391E-08
  -2.717413E-08  -1.620267E-08
  -3.142176E-08  -5.734761E-08
  -3.807573E-08  -9.702378E-08
  -6.052160E-08  -1.163792E-07
  -1.530930E-07  -3.833191E-08
  -2.672281E-08   4.057107E-10
   4.760092E-08   3.077779E-08
   7.640054E-09   7.297274E-08
   1.502206E-08   8.350367E-08
   6.219833E-08   1.003519E-07
   1.296341E-07  -1.853271E-08
   5.056550E-08  -4.489603E-08
   4.495106E-08   9.950423E-09
   6.384863E-08   6.010378E-08
   1.209498E-07  -1.859138E-08
   1.189908E-07  -3.797622E-08
   3.736104E-08  -8.993131E-09
   6.732518E-08   6.146125E-08
   1.708188E-07   3.647984E-08
   1.591075E-07  -6.418449E-08
   1.149598E-07  -7.570509E-08
   1.183786E-08  -6.024503E-08
   4.976823E-08   2.488502E-09
   9.136282E-08  -7.794320E-09
  -4.803233E-10  -3.288437E-08
