 $SEQPAR
 ECHOT = 32.
 HZPPM= 399.7182
 SEQ = 'STEAM'
 $END
 $NMID
 ID='1658'
 FMTDAT='(2E15.6)'
 BRUKER= T
 $END
   3.266161E-06   4.621208E-06
   7.845641E-06  -3.749941E-06
   2.009078E-07  -6.505972E-06
  -5.632615E-06  -4.079902E-06
  -6.656630E-06   6.045054E-07
  -1.919758E-06   2.417782E-06
   1.817815E-06   1.140628E-06
   2.748698E-06  -9.984934E-07
   6.172902E-07  -1.349532E-06
  -9.430996E-07  -8.687722E-07
  -1.613695E-06  -2.331156E-07
  -1.004496E-06  -3.863144E-07
  -9.490617E-07  -3.959683E-07
  -1.016189E-06   1.487617E-07
  -1.272614E-06   1.256519E-06
  -3.942413E-07   1.668589E-06
   4.880046E-07   9.966440E-07
   8.934197E-07  -4.637303E-07
  -1.333437E-07  -8.294998E-07
  -1.061572E-06   5.043668E-07
  -7.892224E-07   2.610390E-06
   7.795524E-07   2.922208E-06
   1.641476E-06   1.461269E-06
   1.582116E-06  -2.477623E-07
   1.261946E-06  -5.953495E-07
   1.861130E-06  -3.854566E-07
   2.027271E-06  -7.142994E-07
   1.036742E-06  -1.475409E-06
  -8.267737E-07  -1.287532E-06
  -1.402654E-06  -3.545904E-07
  -3.441396E-07   1.536526E-07
   1.025465E-06  -5.238831E-07
   8.531040E-07  -1.236387E-06
  -2.920075E-07  -1.080140E-06
  -1.465397E-06  -1.215282E-07
  -1.556694E-06   6.472416E-07
  -7.288512E-07   6.109363E-07
   2.937524E-07  -1.172781E-07
   3.657265E-07  -5.865977E-07
  -2.451137E-07  -5.199131E-07
  -1.030704E-06   3.965003E-07
  -9.562435E-07   1.205251E-06
  -1.240062E-07   8.435265E-07
   3.270522E-07  -3.619192E-07
  -3.184522E-07  -6.636115E-07
  -5.419301E-07   4.566712E-07
   2.011655E-07   1.581475E-06
   1.377256E-06   1.155411E-06
   1.290070E-06  -3.924450E-07
   1.785862E-07  -1.258911E-06
  -4.785227E-07  -5.873407E-07
   2.427374E-07   4.307488E-07
   1.050315E-06   4.778690E-07
   8.964503E-07  -4.149108E-07
  -2.690321E-07  -7.875459E-07
  -9.778985E-07  -3.857857E-07
  -6.916115E-07   1.608000E-07
   2.705560E-07   2.567022E-07
   8.622919E-07  -2.537169E-08
   6.914634E-07  -5.589566E-07
  -2.495651E-07  -8.744316E-07
  -1.110624E-06  -7.826151E-07
  -1.193456E-06  -2.262643E-07
  -4.827855E-07   8.229521E-08
  -1.126765E-07  -7.497806E-08
  -5.113446E-07  -9.585022E-08
  -9.802679E-07   5.625582E-07
  -3.949525E-07   1.111208E-06
   6.385477E-07   5.622558E-07
   1.013277E-06  -7.623615E-07
  -4.861635E-08  -1.088684E-06
  -1.027090E-06   6.923876E-08
  -6.230843E-07   1.426650E-06
   4.733411E-07   1.301360E-06
   9.207776E-07   2.211573E-08
   4.994452E-07  -1.037617E-06
  -1.160745E-07  -8.092095E-07
  -5.210347E-08   2.024192E-07
   3.143352E-07   9.530802E-07
   7.952198E-07   9.583165E-07
   8.506010E-07   3.099986E-07
   4.592837E-07  -5.581303E-07
  -7.125204E-08  -8.445818E-07
  -1.538806E-07  -3.691742E-07
   3.051939E-07   1.016852E-07
   6.641525E-07  -1.179370E-07
   3.178123E-09  -6.953885E-07
  -1.125663E-06  -6.103899E-07
  -1.393203E-06   4.230918E-07
  -3.384977E-07   1.122143E-06
   7.503864E-07   7.033384E-07
   6.775308E-07  -2.916761E-07
  -3.357814E-07  -6.362055E-07
  -9.117543E-07  -2.133451E-07
  -5.787701E-07   2.941731E-07
  -4.633281E-08   2.266991E-07
   2.063386E-07   1.458431E-07
   2.930142E-07   1.118652E-07
   9.383056E-10  -5.896392E-08
  -4.021976E-07  -3.115752E-07
  -7.321185E-07  -2.419205E-07
  -4.538983E-07   1.169921E-07
   1.429815E-07   2.540371E-07
   5.986643E-07   7.548008E-08
   4.096191E-07  -5.585294E-08
   1.440164E-07  -1.025368E-07
   1.515343E-07  -2.718108E-07
   7.898683E-08  -6.498822E-07
  -1.619008E-07  -6.896443E-07
  -1.740494E-07  -2.622970E-07
   1.598656E-07   2.611112E-07
   4.274885E-07   7.452014E-08
   9.602944E-08  -4.032214E-07
  -3.610935E-07  -3.315671E-07
  -2.800260E-07   9.688976E-08
   3.094102E-07   1.765579E-07
   4.451266E-07  -8.913047E-08
  -9.899291E-08  -1.228654E-07
  -5.655094E-07   3.161788E-07
  -3.516463E-07   6.276890E-07
   1.187915E-07   4.321689E-07
   2.293065E-07   6.644983E-08
   4.539055E-08   9.483731E-08
  -8.620248E-08   3.308320E-07
  -1.402890E-07   4.872408E-07
  -1.103719E-07   4.754255E-07
   3.214797E-08   4.908988E-07
   3.348641E-07   3.188444E-07
   4.816151E-07  -1.307170E-07
   1.490659E-07  -2.938201E-07
  -3.090715E-07   1.258365E-08
  -2.247959E-07   3.410427E-07
   1.759720E-07   2.024341E-07
   2.938609E-07  -4.199571E-07
  -1.825577E-07  -6.673104E-07
  -4.631410E-07  -2.386759E-07
  -1.217898E-07   2.534945E-07
   2.268521E-07   9.911171E-08
   3.837138E-08  -3.282297E-07
  -2.386368E-07  -4.663571E-07
  -1.940159E-07  -1.987781E-07
  -4.775598E-08  -1.217658E-07
  -3.443066E-08  -2.055965E-07
  -4.427647E-08  -8.382730E-08
  -4.429685E-08   2.656510E-08
   2.693506E-08  -8.893423E-08
  -5.423108E-08  -1.273374E-07
  -1.376168E-07   1.047478E-07
   8.927369E-08   4.181655E-07
   4.096309E-07   3.066357E-07
   2.745649E-07  -1.638053E-07
  -5.508753E-08  -3.785044E-07
  -1.675318E-07  -1.023078E-07
   1.078071E-07   1.075599E-07
   3.407010E-07  -7.499695E-09
   2.412265E-07  -1.293752E-07
  -8.546684E-08   9.220290E-08
   2.214266E-08   1.993424E-07
   2.349749E-07   5.887797E-08
   9.732586E-08  -3.266105E-07
  -1.358329E-07  -2.347550E-07
  -1.104493E-07   1.121965E-07
   9.627360E-08   1.908708E-07
   1.036819E-07  -3.970142E-08
  -1.234429E-07  -1.587356E-07
  -1.908307E-07  -5.954103E-08
  -1.180832E-07  -5.169949E-08
  -1.208249E-07  -1.886750E-07
  -2.709133E-07  -5.881602E-08
  -2.483089E-07   2.265683E-07
  -8.947878E-08   2.975515E-07
   4.662015E-08  -4.239935E-08
  -1.472588E-07  -2.045190E-07
  -1.956569E-07   3.068979E-08
   4.075196E-08   2.703383E-07
   2.277368E-07   2.013305E-07
   4.997191E-08  -5.016350E-08
  -2.550820E-07  -6.175369E-08
  -2.284921E-07   1.985751E-07
   1.417477E-07   1.915695E-07
   2.933938E-07  -4.708350E-08
   8.767473E-08  -1.382708E-07
  -8.870988E-08  -2.723742E-08
   5.894653E-08   2.750276E-08
   1.686142E-08  -1.097678E-07
  -8.524988E-08  -2.420539E-07
  -9.298648E-08  -1.087634E-07
   9.393503E-08  -2.773446E-08
   1.496469E-07  -2.167246E-07
  -6.452102E-08  -3.286289E-07
  -3.122770E-07  -1.155615E-07
  -1.092866E-07   3.838288E-08
   7.466501E-08  -7.704578E-08
  -2.382944E-09  -2.508781E-07
  -1.529499E-07  -1.823844E-07
  -1.315010E-07   1.294434E-07
  -6.057683E-09   1.150017E-07
   1.000599E-07  -2.353186E-07
  -1.239786E-07  -1.666838E-07
  -1.432525E-07   1.451604E-07
   1.329281E-07   2.445487E-07
   2.224909E-07   9.328030E-08
  -3.254838E-08  -7.415322E-08
  -1.178892E-07   1.327782E-07
   1.074453E-07   3.152762E-07
   3.412518E-07   8.970716E-08
   2.180308E-07  -5.470669E-08
   2.262299E-08   6.626818E-08
   5.522680E-08   2.252601E-07
   1.480499E-07   9.511734E-08
   6.791384E-08  -1.456542E-07
  -3.089997E-08  -6.403661E-08
  -1.175423E-08   1.323692E-07
   1.557497E-07   2.860463E-08
   4.846361E-08  -9.388232E-08
  -2.093455E-07  -1.040166E-07
  -2.806323E-07   1.381793E-07
  -6.633337E-10   1.327332E-07
   1.380494E-07  -1.334959E-07
  -1.567364E-07  -2.105985E-07
  -3.789630E-07   4.862667E-08
  -1.562046E-07   3.082296E-07
   7.154622E-08   1.677182E-07
  -1.320473E-08  -7.430755E-08
  -1.585148E-07  -1.015307E-07
  -1.616335E-07   9.685792E-08
  -8.690364E-08   1.502483E-07
  -3.989529E-08   3.609274E-08
  -1.426692E-07   1.374971E-07
  -4.923861E-08   2.436084E-07
   2.228183E-07   8.002821E-08
   2.150637E-07  -1.376997E-07
  -9.337646E-10  -1.520164E-07
  -7.049798E-08   1.631299E-08
   1.217451E-07   1.257211E-07
   2.569464E-07  -1.143285E-07
   1.278302E-08  -2.594156E-07
  -8.708431E-08  -1.074159E-07
   1.172551E-07   6.246873E-08
   2.580764E-07  -9.491630E-09
   1.087174E-07  -1.663327E-07
  -1.141515E-07  -6.725685E-08
  -1.378288E-07   1.101667E-07
   1.187293E-07   9.963491E-08
   1.013824E-07  -8.785588E-08
  -8.575817E-08  -6.442574E-08
  -1.672000E-07   1.727289E-07
   1.976007E-08   1.764973E-07
   6.673852E-08   8.820199E-09
  -7.488931E-08  -3.395001E-08
  -1.104438E-07   1.182615E-07
   8.539915E-08   2.067638E-07
   2.048783E-07   3.801971E-08
   1.160076E-08  -4.019196E-08
  -1.561243E-07   8.205239E-08
   3.750810E-08   1.943947E-07
   1.915282E-07   7.004161E-08
   9.758548E-08  -1.426705E-07
  -4.520802E-08   8.795285E-09
   2.465476E-08   2.048330E-07
   1.786372E-07   1.118470E-07
   1.671471E-07  -1.581768E-07
  -7.450762E-08  -1.913416E-07
  -8.569732E-08  -4.969193E-08
   1.018295E-07   2.237564E-09
   1.067604E-07  -1.695373E-07
  -1.067702E-07  -2.145894E-07
  -1.952699E-07  -2.119587E-08
  -1.020711E-07   7.203895E-08
   1.863578E-08  -5.684814E-08
  -1.536053E-07  -1.525018E-07
  -2.521285E-07   3.129339E-10
  -9.890606E-08   1.467010E-07
  -3.535725E-08   5.359796E-08
  -9.292152E-08  -7.344249E-08
  -1.853193E-07   2.416974E-09
  -9.372591E-08   2.293981E-07
   6.583766E-08   1.728996E-07
   3.413654E-08  -8.092141E-09
  -7.569529E-08   4.087800E-08
  -1.185654E-07   1.240312E-07
   7.873826E-08   9.390926E-08
   1.183542E-07  -5.907624E-08
  -2.578011E-08  -1.472379E-07
  -1.040257E-07   2.046902E-08
   2.478815E-08   1.333797E-07
   1.521808E-07  -3.624636E-08
   4.230281E-08  -2.086360E-07
  -5.207560E-08  -1.083650E-07
   1.393065E-07   7.909948E-08
   2.558647E-07  -6.236433E-09
   7.967437E-08  -1.764349E-07
  -1.394435E-07  -1.179233E-07
  -1.047064E-07   3.034752E-08
  -1.164238E-08   1.029427E-07
   4.025275E-09  -5.842158E-08
  -1.339317E-07  -8.742827E-08
  -1.570328E-07   8.252301E-08
   4.180879E-08   1.368019E-07
   7.450839E-08   2.466145E-08
  -1.417753E-07  -9.748365E-08
  -1.295432E-07   5.558713E-08
   6.377104E-08   1.653971E-07
   1.686003E-07   6.794796E-09
   1.737418E-08  -1.481332E-07
  -1.634539E-07  -4.378283E-08
  -8.383733E-09   8.982003E-08
   1.962488E-07   4.021003E-08
   1.033263E-07  -1.364674E-07
  -9.696865E-08  -1.096313E-07
  -1.455064E-08   1.019833E-07
   1.475434E-07   1.328504E-07
   1.373781E-07  -8.654791E-08
  -3.258179E-08  -1.619090E-07
  -7.343166E-08   6.277036E-09
   1.297398E-07   3.291594E-08
   1.324311E-07  -1.312001E-07
  -7.857610E-08  -1.661992E-07
