 $SEQPAR
 ECHOT = 60.
 HZPPM= 399.7182
 SEQ = 'sLASER'
 $END
 $NMID
 ID='Leu'
 FMTDAT='(2E15.6)'
 VOLUME= 1.0
 TRAMP= 1.0
 BRUKER= T
 $END
   4.015187E-07   4.589096E-07
   9.030308E-07  -6.374786E-07
  -3.690256E-07  -1.185170E-06
  -1.128879E-06  -3.271820E-07
  -9.158544E-07   7.437745E-07
   2.133513E-07   1.023207E-06
   7.897043E-07   2.388431E-07
   5.018464E-07  -5.288655E-07
  -3.033058E-07  -5.966509E-07
  -5.654978E-07   2.783212E-08
  -2.188882E-07   4.233129E-07
   2.407963E-07   2.701792E-07
   1.831993E-07  -1.553368E-07
  -1.994360E-07  -2.053262E-07
  -4.086752E-07   2.056187E-07
   1.104193E-08   5.728733E-07
   4.926977E-07   3.015539E-07
   5.045756E-07  -2.262751E-07
   4.832913E-08  -5.156050E-07
  -4.233488E-07  -2.662600E-07
  -4.344957E-07   2.648472E-07
  -3.254946E-09   4.743599E-07
   2.907160E-07   2.830718E-07
   3.246677E-07   1.733142E-08
   1.794350E-07  -6.366212E-08
   2.098651E-07  -5.076895E-08
   2.085795E-07  -1.856121E-07
   8.334783E-08  -3.240465E-07
  -2.173451E-07  -2.982241E-07
  -3.222306E-07   4.355558E-08
  -5.025395E-08   2.777089E-07
   2.762991E-07   9.398919E-08
   1.888579E-07  -2.562435E-07
  -1.289171E-07  -3.221950E-07
  -3.760828E-07  -6.566966E-08
  -2.249527E-07   2.923173E-07
   1.392306E-07   3.114577E-07
   3.446142E-07  -1.779874E-09
   1.175554E-07  -3.254389E-07
  -2.347782E-07  -2.467626E-07
  -3.515346E-07   8.262011E-08
  -8.073040E-08   3.609059E-07
   2.680399E-07   1.952900E-07
   2.272453E-07  -1.494735E-07
  -7.901296E-08  -1.979848E-07
  -1.796542E-07   5.665898E-08
   2.605593E-08   2.298151E-07
   3.211803E-07   6.528388E-08
   2.246571E-07  -3.602693E-07
  -2.796559E-07  -4.037122E-07
  -5.186765E-07   9.162403E-08
  -1.391738E-07   5.011621E-07
   3.458955E-07   3.386125E-07
   4.404226E-07  -1.115443E-07
   1.186167E-07  -4.085598E-07
  -2.681612E-07  -2.744707E-07
  -3.218233E-07   9.430906E-08
  -4.662519E-08   2.776451E-07
   1.998308E-07   1.358362E-07
   1.846799E-07  -1.378106E-07
  -9.047108E-08  -2.032061E-07
  -1.961035E-07   2.731465E-08
  -5.648221E-08   1.716772E-07
   1.396816E-07   1.309355E-07
   1.748669E-07  -1.046725E-07
  -6.669789E-08  -2.002970E-07
  -2.266897E-07   2.405507E-08
  -2.796354E-08   2.537717E-07
   2.661059E-07   9.850709E-08
   1.955345E-07  -2.414492E-07
  -1.499668E-07  -3.076957E-07
  -3.858697E-07  -2.110882E-08
  -2.222831E-07   3.617899E-07
   2.136892E-07   3.517799E-07
   3.449708E-07  -8.710601E-09
   1.508542E-07  -2.400963E-07
  -1.260774E-07  -2.231183E-07
  -2.368435E-07   4.150818E-08
  -3.533957E-08   2.158041E-07
   1.513945E-07   1.093535E-07
   1.428364E-07  -6.186818E-08
  -7.748622E-09  -1.249544E-07
  -1.090699E-07   4.362362E-09
  -2.223501E-08   1.343769E-07
   1.486464E-07   1.300231E-07
   2.541307E-07  -7.085164E-08
   8.406430E-08  -2.767351E-07
  -1.788435E-07  -2.085006E-07
  -2.353227E-07   4.956024E-08
  -4.144105E-08   2.037227E-07
   1.715167E-07   1.018888E-07
   1.465212E-07  -1.278897E-07
  -4.088217E-08  -1.523749E-07
  -1.128801E-07  -5.941940E-08
  -1.105912E-07   6.968543E-08
   5.000978E-08   1.039512E-07
   7.680474E-08  -2.304126E-08
   3.618957E-08  -3.630620E-08
   3.726764E-08  -8.005731E-08
  -4.114521E-08  -1.136066E-07
  -1.171784E-07  -6.559300E-08
  -1.449458E-07   3.302621E-08
  -5.687774E-08   1.278683E-07
   3.977949E-08   7.731047E-08
   4.570387E-08   4.364549E-08
   7.858657E-08  -1.634907E-08
   8.113878E-09  -7.538113E-08
  -5.777702E-08  -5.532154E-08
  -1.105457E-07   2.468926E-08
  -4.010315E-08   1.254780E-07
   8.337090E-08   1.271113E-07
   1.843720E-07  -9.561083E-09
   6.531407E-08  -1.587489E-07
  -6.069613E-08  -1.111840E-07
  -9.490783E-08  -2.708364E-08
  -2.794601E-08   2.564150E-08
  -1.868527E-08  -4.071012E-08
  -8.106782E-08  -2.405449E-08
  -1.015750E-07   2.967762E-08
  -6.435668E-08   1.052561E-07
   2.318794E-08   1.048332E-07
   7.457918E-08   4.699501E-08
   5.007089E-08  -4.598848E-08
  -6.147696E-08  -4.593144E-08
  -9.086998E-08   6.688644E-08
   3.419220E-09   1.345799E-07
   1.048210E-07   8.779948E-08
   1.188109E-07  -2.704767E-08
   2.515177E-08  -7.955644E-08
  -3.154559E-08  -5.084213E-08
  -9.675944E-08  -6.271903E-09
  -7.209837E-08   1.392268E-07
   9.957279E-08   1.529930E-07
   1.630893E-07   1.633133E-08
   9.599193E-08  -7.458886E-08
   1.517650E-08  -7.109676E-08
  -6.015676E-09  -1.200491E-08
   4.769438E-08  -9.561141E-09
   1.870132E-08  -7.018004E-08
  -4.585232E-08  -3.634423E-08
  -4.253521E-08   2.970721E-08
   2.420033E-08   6.596226E-08
   7.971658E-08   1.506165E-08
   7.231963E-08  -3.144868E-08
   5.265635E-08  -7.467821E-08
  -1.397280E-08  -8.135218E-08
  -2.884498E-08  -2.666483E-08
   2.278953E-09  -2.385797E-08
  -7.144110E-09  -4.289120E-08
  -2.210903E-08  -4.190437E-08
  -4.534058E-08  -4.425823E-08
  -8.749941E-08  -4.467840E-09
  -5.308993E-08   8.005826E-08
   4.554649E-08   7.088423E-08
   7.246636E-08  -8.621351E-09
   1.710842E-08  -6.359501E-08
  -2.935368E-08  -1.307481E-08
   2.596432E-08  -1.709099E-08
  -2.593575E-08  -6.604629E-08
  -6.393281E-08  -2.394508E-08
  -8.480643E-08   2.161071E-08
  -1.672548E-08   9.417420E-08
   4.969167E-08   2.054087E-08
   1.072836E-09  -3.175278E-09
   7.531023E-09   1.654878E-08
   2.423908E-08   6.729413E-09
   1.580703E-08  -2.539169E-08
  -1.703180E-08  -7.881626E-09
   8.507015E-09  -6.804661E-09
  -3.970482E-08  -2.153935E-08
  -2.517644E-08   6.343640E-08
   6.471207E-08   2.070656E-08
   1.547728E-08  -4.430228E-08
  -1.078928E-08  -1.350148E-08
  -6.879981E-09  -2.295102E-08
  -3.504041E-08  -1.224903E-08
  -3.141248E-08   5.726156E-09
  -5.163720E-08   2.714476E-08
  -3.288468E-10   8.776618E-08
   7.036627E-08   2.244769E-08
   2.304258E-08  -2.756756E-08
  -8.415558E-09  -2.026736E-08
  -2.962880E-08   1.306240E-08
   5.654877E-09   3.158784E-08
   7.890116E-09   1.121133E-08
  -4.367027E-09   1.235015E-08
  -1.109255E-08   5.006534E-08
   6.380112E-08   5.827905E-08
   6.924168E-08  -2.327713E-08
   7.176757E-09  -3.819494E-08
  -2.600779E-08   1.923074E-08
   4.409763E-08   5.820441E-08
   7.435784E-08   6.418898E-09
   9.229127E-08  -2.237987E-08
   5.074899E-08  -1.089591E-07
  -4.074895E-08  -6.281677E-08
  -1.361898E-08  -2.612347E-08
  -3.591663E-08  -2.929574E-08
  -3.875818E-08   1.868369E-08
   7.175927E-09   4.802939E-08
   6.924561E-08   1.257781E-08
   4.406995E-08  -6.678110E-08
  -2.525703E-08  -5.220966E-08
  -2.604123E-08  -1.894727E-08
  -3.431116E-08   4.920471E-09
   1.007862E-08   3.011632E-08
   1.908705E-08  -1.059197E-08
   1.118614E-08   2.929611E-09
   2.234261E-08  -2.264741E-08
  -5.426152E-09  -9.962093E-09
   1.933011E-08  -6.158231E-09
   6.304947E-09  -1.029107E-08
   3.833017E-08  -2.562777E-09
   3.752095E-08  -4.994686E-08
   1.312429E-08  -5.663256E-08
  -1.072003E-08  -7.662117E-08
  -6.427969E-08  -3.944296E-08
  -1.378252E-08   2.060522E-08
   3.627471E-08  -5.013227E-08
  -4.542661E-08  -9.395468E-08
  -9.481552E-08  -3.510056E-08
  -8.368243E-08   2.534174E-08
  -1.471134E-08   4.309161E-08
  -1.339870E-08  -2.862292E-08
  -7.916833E-08   7.508075E-09
  -2.512341E-08   5.441780E-08
  -8.072983E-09   7.701853E-09
  -4.516838E-08   1.702666E-08
  -3.331175E-08   4.970454E-08
  -1.444815E-08   6.637041E-08
   4.156789E-08   7.176836E-08
   5.999810E-08   1.001620E-09
   1.362877E-08  -1.084598E-08
   6.342364E-09  -1.978622E-09
   1.922663E-09   1.963271E-08
   4.147171E-08   1.139938E-08
   2.836693E-08  -2.929246E-08
  -5.240110E-09  -3.855196E-08
  -4.086806E-08   8.234600E-10
   1.474535E-08   3.359401E-08
   1.584656E-08  -2.874649E-08
  -3.966307E-08   1.257219E-09
  -1.402115E-09   5.147430E-08
   5.190790E-08   2.680448E-08
   4.812324E-08  -2.733852E-08
   4.498721E-09  -3.474534E-08
   5.178915E-09  -8.303179E-09
   1.847034E-08  -2.678221E-08
  -5.753380E-09  -3.902790E-08
  -3.103741E-08  -2.553416E-08
  -2.302345E-08   1.724818E-08
   2.389781E-08  -3.398274E-09
  -5.195697E-09  -3.590640E-08
  -2.283067E-08  -2.806605E-08
  -4.965319E-08  -7.872527E-09
  -1.823474E-08   2.490489E-08
  -1.953425E-08  -3.593898E-09
  -2.603290E-08   3.881819E-08
   3.026623E-08   1.956177E-08
  -5.262422E-09  -2.015048E-08
  -1.438473E-08   1.674896E-08
   2.467257E-09  -6.595975E-10
  -2.046220E-08   2.135971E-08
   3.076395E-08   2.283641E-08
   5.313813E-09  -1.475102E-08
   1.757859E-08   9.069168E-09
   7.658291E-09  -4.297496E-08
  -4.333723E-08  -4.222596E-09
  -1.296731E-08   2.536804E-08
   1.414497E-08   2.868268E-08
   3.998372E-08  -2.099484E-08
  -2.802596E-08  -4.234707E-08
  -3.075992E-08   1.656770E-08
   3.793121E-10   5.323550E-10
  -3.398439E-08  -7.981396E-09
  -3.411785E-08   4.293988E-08
   1.910968E-08   3.927074E-08
   1.046305E-08   6.848716E-09
   9.300360E-09   8.858610E-09
  -1.960760E-08  -6.730771E-09
  -2.889230E-08   6.143471E-08
   5.064746E-08   5.930369E-08
   5.186642E-08   9.244275E-09
   4.281704E-08  -5.896259E-09
   2.110705E-08  -1.448646E-08
   1.774934E-08   4.401463E-09
   3.794903E-08   2.633697E-09
   3.623718E-08  -2.214359E-08
   2.312015E-08  -1.029076E-08
   5.844268E-08  -2.617907E-08
   2.974928E-08  -7.977615E-08
  -2.245393E-08  -7.924498E-08
  -6.564999E-08  -4.464743E-08
  -5.794600E-08   1.321948E-08
  -1.713198E-08   3.766295E-08
   3.026327E-08   9.443933E-09
  -3.850339E-09  -3.098496E-08
  -1.038823E-08  -5.315378E-10
  -1.127058E-08  -2.146096E-08
  -2.870058E-08   8.791555E-09
  -9.691323E-09   7.214205E-09
  -1.543951E-08   3.121304E-08
   3.650674E-08   2.565234E-08
   3.152917E-08  -1.284462E-08
   2.788627E-08  -3.342343E-08
  -2.238506E-08  -5.135205E-08
  -3.690866E-08   5.718974E-09
   3.806506E-09   4.049386E-09
  -1.278330E-08  -2.028876E-08
  -3.844361E-08   6.098218E-09
  -5.823705E-09   4.594484E-08
   4.291514E-08   1.119496E-08
   1.319219E-08  -2.993012E-08
  -9.949678E-09  -1.348298E-08
  -1.088032E-08  -2.359287E-09
   3.681970E-09   1.173513E-08
   1.900817E-08  -1.359658E-08
  -6.210664E-09  -1.690084E-08
