 $SEQPAR
 ECHOT = 52.
 HZPPM= 399.7182
 SEQ = 'sLASER'
 $END
 $NMID
 ID='Leu'
 FMTDAT='(2E15.6)'
 VOLUME= 1.0
 TRAMP= 1.0
 BRUKER= T
 $END
   7.647750E-07   1.050140E-06
   1.893505E-06  -1.098033E-06
  -4.669992E-07  -2.204491E-06
  -1.830310E-06  -7.379506E-07
  -1.528041E-06   1.087614E-06
   3.484932E-07   1.545860E-06
   1.255761E-06   2.605038E-07
   7.471334E-07  -1.007865E-06
  -6.152543E-07  -1.026277E-06
  -9.654675E-07  -5.397111E-09
  -4.433508E-07   6.317429E-07
   3.271261E-07   4.047098E-07
   2.312508E-07  -2.695887E-07
  -3.183270E-07  -3.797073E-07
  -7.150900E-07   1.634134E-07
  -2.378771E-07   7.677727E-07
   4.700179E-07   5.993965E-07
   7.149621E-07  -1.679199E-07
  -9.520330E-10  -7.022450E-07
  -6.981597E-07  -2.553568E-07
  -6.691507E-07   5.403378E-07
   4.381656E-08   8.823710E-07
   5.746998E-07   5.216051E-07
   6.079096E-07   2.925733E-08
   3.558195E-07  -1.089123E-07
   4.155435E-07  -1.254074E-07
   3.639926E-07  -4.039513E-07
   5.306758E-08  -6.060787E-07
  -4.283608E-07  -4.319830E-07
  -4.681844E-07   9.731890E-08
  -7.060151E-08   3.584507E-07
   3.470014E-07   7.857163E-08
   1.553435E-07  -3.933122E-07
  -3.156177E-07  -3.805207E-07
  -5.689783E-07   7.442361E-08
  -2.031478E-07   5.417630E-07
   3.485678E-07   3.960341E-07
   4.883812E-07  -1.376867E-07
   6.394131E-08  -5.151652E-07
  -4.695502E-07  -3.102339E-07
  -5.504727E-07   2.969339E-07
  -5.075160E-09   6.319217E-07
   4.923505E-07   3.057677E-07
   4.347118E-07  -2.546134E-07
  -9.855022E-08  -3.845108E-07
  -3.390096E-07   7.614340E-08
   7.013666E-08   4.322116E-07
   5.540848E-07   6.864001E-08
   3.409118E-07  -4.978260E-07
  -2.438211E-07  -5.776282E-07
  -6.276663E-07  -3.551087E-08
  -2.300237E-07   5.228973E-07
   3.857167E-07   3.933083E-07
   5.586248E-07  -2.265062E-07
   3.076179E-08  -6.112533E-07
  -4.477794E-07  -3.357335E-07
  -4.994980E-07   1.613989E-07
  -5.795445E-08   4.464361E-07
   3.174526E-07   1.590898E-07
   2.408056E-07  -2.393622E-07
  -1.475242E-07  -3.450431E-07
  -3.742001E-07  -4.235834E-08
  -2.300150E-07   2.564675E-07
   8.429354E-08   2.653014E-07
   1.926113E-07  -2.861827E-09
  -2.054854E-08  -1.834154E-07
  -2.760922E-07   2.159674E-08
  -6.239705E-08   3.506849E-07
   3.340727E-07   1.893172E-07
   3.086028E-07  -2.640311E-07
  -1.537990E-07  -4.198280E-07
  -4.961547E-07  -3.993946E-08
  -2.813099E-07   4.502514E-07
   2.517023E-07   4.330474E-07
   4.272099E-07  -1.012786E-08
   1.449598E-07  -3.448110E-07
  -2.694199E-07  -2.175747E-07
  -2.855892E-07   1.696806E-07
   2.408023E-09   3.343491E-07
   2.765134E-07   1.616990E-07
   2.198793E-07  -1.268904E-07
  -1.463853E-08  -1.941614E-07
  -1.991636E-07  -1.500055E-08
  -7.723715E-08   2.620694E-07
   2.698757E-07   2.525788E-07
   4.292174E-07  -1.245974E-07
   1.166298E-07  -4.443815E-07
  -3.008916E-07  -3.062147E-07
  -3.716463E-07   1.272253E-07
  -1.738304E-08   3.551693E-07
   3.043225E-07   1.645189E-07
   2.929806E-07  -2.046163E-07
  -5.286868E-08  -3.119079E-07
  -2.115190E-07  -7.609874E-08
  -1.105702E-07   1.055960E-07
   6.998348E-08   8.864341E-08
   9.495569E-08  -3.884691E-08
   6.522288E-08  -1.112750E-07
  -3.842017E-08  -1.757575E-07
  -1.551388E-07  -1.199171E-07
  -2.109534E-07  -8.679386E-09
  -1.709158E-07   1.264963E-07
  -4.891099E-08   2.016666E-07
   1.192749E-07   1.559920E-07
   1.530509E-07  -3.028354E-08
   7.425217E-09  -1.078528E-07
  -5.900046E-08  -1.731784E-08
  -2.853264E-08  -1.185420E-08
  -9.438266E-08   2.311720E-08
  -2.720335E-08   1.311966E-07
   9.196688E-08   1.027486E-07
   1.439509E-07  -7.642011E-09
   6.845490E-08  -1.166677E-07
  -5.280494E-08  -9.428863E-08
  -5.645735E-08   1.907870E-08
   4.920204E-08   4.443518E-10
   1.329836E-08  -1.078044E-07
  -1.205306E-07  -1.189468E-07
  -2.201547E-07   4.657463E-08
  -7.369601E-08   2.101031E-07
   1.142968E-07   1.537658E-07
   1.523242E-07  -4.490741E-08
  -3.466135E-08  -1.131072E-07
  -9.548514E-08   8.891582E-09
  -7.315922E-08   8.837835E-08
   3.472871E-08   1.426651E-07
   1.202933E-07   6.732109E-08
   1.432653E-07  -2.073990E-08
   8.412621E-08  -1.375052E-07
  -7.830870E-08  -1.559797E-07
  -1.986841E-07   1.771337E-08
  -4.397154E-08   2.092092E-07
   1.685816E-07   1.232553E-07
   1.805479E-07  -7.965837E-08
   1.348007E-08  -1.540431E-07
  -6.149464E-08  -5.676322E-08
  -3.940812E-08  -6.048622E-10
   2.105983E-08   1.107508E-08
   2.859329E-08  -7.138878E-08
  -7.528483E-08  -8.388760E-08
  -1.141408E-07   4.190808E-08
   2.920201E-08   9.133230E-08
   5.632577E-08  -3.834459E-08
  -1.671017E-08  -4.112761E-08
  -1.604494E-08  -3.466824E-08
  -3.604423E-08  -3.697909E-08
  -5.868025E-08  -4.943005E-08
  -1.338123E-07  -1.122319E-09
  -7.671724E-08   1.152459E-07
   3.195408E-08   6.672345E-08
  -1.472683E-09  -1.220426E-08
  -7.754384E-08   2.104676E-09
  -8.957546E-08   1.050666E-07
   2.106181E-08   1.502130E-07
   9.875651E-08   7.716549E-08
   7.299039E-08  -1.741445E-08
  -1.093332E-08  -1.210097E-08
  -1.337143E-08   4.481579E-08
   2.687125E-08   5.932486E-08
   2.811735E-08   1.875451E-08
  -1.405828E-08   7.715860E-08
   9.742093E-08   1.255355E-07
   1.816365E-07   3.657248E-08
   1.749865E-07  -1.006021E-07
   2.984266E-08  -1.569940E-07
  -3.426239E-08  -7.452728E-08
  -2.212443E-08  -2.841217E-08
   6.425512E-09  -3.092497E-08
  -2.664112E-08  -4.007805E-08
  -2.413981E-08   9.468342E-10
   1.308055E-10   1.586601E-08
   4.732824E-08  -1.151449E-08
  -3.204262E-09  -6.348437E-08
  -2.544147E-08  -1.318858E-08
  -1.229897E-09  -1.675866E-08
  -1.340018E-09  -3.750015E-08
  -5.877229E-08  -5.760203E-08
  -1.024493E-07   3.379685E-08
  -1.796739E-08   1.074681E-07
   8.531876E-08   6.047244E-08
   8.095999E-08  -5.169598E-08
  -1.622969E-08  -8.702178E-08
  -8.399806E-08  -1.124878E-08
  -2.641831E-08   7.198885E-08
   5.500269E-08   2.999423E-08
   1.869830E-08  -3.961586E-08
  -2.933935E-08   2.637691E-09
   6.052343E-09   2.586661E-08
   2.810585E-08   2.766719E-08
   6.483837E-08  -2.807561E-08
  -2.037393E-08  -5.123466E-08
   4.854770E-09   1.631618E-08
   2.966137E-08  -3.077924E-08
   1.072108E-08  -4.621953E-08
  -3.491061E-08  -6.704698E-08
  -7.158185E-08  -9.987879E-10
  -1.545340E-08   3.427650E-08
   1.574423E-08  -1.622068E-08
  -5.457805E-08  -3.746592E-08
  -6.388398E-08   4.959152E-08
   1.358502E-08   6.520408E-08
   5.550980E-08   3.943971E-11
  -2.183017E-08  -5.977483E-08
  -7.214680E-08   3.776491E-08
   2.048943E-08   6.628454E-08
   3.758317E-08   4.588293E-09
   6.205745E-09  -1.654691E-08
  -3.149682E-08   2.349414E-09
  -1.298173E-08   6.592942E-08
   7.216318E-08   5.262744E-08
   8.234301E-08  -3.328034E-08
   1.092646E-08  -8.098174E-08
  -6.292391E-08  -1.803426E-08
  -1.305062E-10   4.736293E-08
   2.777341E-08  -5.084480E-09
  -1.712494E-09   9.156280E-09
   4.566377E-08   2.658664E-08
   7.629660E-08  -4.278200E-08
   5.205600E-09  -9.780551E-08
  -6.728613E-08  -5.344355E-08
  -6.408103E-08   2.775849E-08
   1.940041E-08   5.836674E-08
   7.847794E-08  -1.681684E-08
   2.251727E-08  -1.124751E-07
  -1.027873E-07  -7.951665E-08
  -9.333993E-08   3.250722E-08
  -4.118328E-08   4.642990E-08
  -1.507793E-08   5.645308E-08
   1.493348E-08   4.230515E-08
   2.769061E-08   3.720016E-08
   6.378664E-08   9.850985E-09
   4.680890E-08  -5.520510E-08
  -2.251120E-08  -5.815939E-08
  -3.263579E-08  -2.719697E-09
   8.010907E-09  -5.233129E-09
  -1.507196E-08  -3.713274E-08
  -3.545448E-08  -9.272900E-09
  -3.492834E-08  -8.339304E-10
  -1.292118E-08   4.102436E-08
   4.346192E-08  -2.895281E-08
  -6.713375E-08  -5.694586E-08
  -6.656670E-08   3.991837E-08
  -2.233943E-08   5.957713E-08
   5.375564E-08   4.948949E-08
   4.260879E-08  -6.225133E-08
  -5.764017E-08  -5.289317E-08
  -7.351287E-08   1.409436E-08
  -3.281774E-08   4.779270E-08
  -1.323303E-08   2.207033E-08
  -3.884909E-08   2.041896E-08
  -5.640954E-08   7.231022E-08
   3.763083E-08   1.285157E-07
   1.143175E-07   1.432228E-08
   2.279795E-08  -5.255944E-08
  -2.841517E-08  -2.749910E-09
  -2.716476E-09   4.655165E-08
   5.240509E-08   1.816003E-08
   9.255855E-09  -3.860557E-08
  -4.609558E-08   1.693653E-08
   1.155723E-08   7.531589E-08
   7.783305E-08   3.048177E-08
   5.676187E-08  -4.192431E-08
  -1.532014E-08  -4.189765E-08
  -2.328002E-08   2.424307E-08
   3.198402E-08   2.859737E-08
   2.761173E-08  -7.417100E-09
   1.875399E-08   5.765940E-09
   3.520190E-08  -7.071270E-09
   2.170601E-08  -1.621461E-08
   2.901238E-08  -1.946124E-08
   1.157601E-08  -4.627355E-08
  -3.392452E-08  -2.472071E-08
  -4.232830E-09   3.648672E-08
   6.624181E-08  -1.237200E-08
   6.802013E-09  -8.490963E-08
  -6.302451E-08  -4.419114E-08
  -6.051281E-08   1.456123E-08
  -2.871302E-08   4.053654E-08
   4.963255E-10   4.278645E-08
   1.644189E-08   2.962029E-08
   2.446955E-08   3.348049E-08
   5.987394E-08   1.494353E-08
   5.275426E-08  -3.738188E-08
  -6.458038E-09  -5.382708E-08
  -3.056770E-08   2.019408E-08
   5.836265E-08   2.550414E-08
   4.392928E-08  -5.285303E-08
   2.812469E-09  -4.454231E-08
  -1.237530E-08  -3.731715E-08
  -1.051068E-08  -5.977814E-09
   2.582160E-08  -2.859589E-08
  -2.421419E-08  -6.764592E-08
  -5.788572E-08  -5.771940E-09
  -1.518605E-08   8.368875E-09
  -1.101606E-08   6.821254E-09
   1.396166E-08  -2.777245E-08
  -7.799323E-08  -3.903172E-08
  -5.896131E-08   8.504025E-08
   4.356047E-08   6.633902E-08
   6.311231E-08   1.319010E-08
   4.380590E-08  -3.890595E-08
   2.510306E-09  -2.122763E-08
   3.809373E-08  -2.152761E-08
   7.052839E-09  -7.315567E-08
  -4.481229E-08  -4.611936E-08
  -4.616887E-08  -7.604004E-09
  -1.976358E-08   1.972452E-08
   1.392532E-08  -5.133312E-09
  -1.565964E-08  -3.150319E-08
  -3.936825E-08   6.663704E-09
   1.622536E-08   3.845426E-08
   5.642475E-08  -3.267263E-08
   1.749501E-09  -7.910000E-08
  -6.341499E-08  -7.716354E-08
  -1.042731E-07   2.103552E-08
   1.118277E-08   5.416966E-08
   1.276063E-08  -3.713139E-08
  -3.230065E-08  -3.922229E-08
