 $SEQPAR
 ECHOT = 24.
 HZPPM= 399.7182
 SEQ = 'sLASER'
 $END
 $NMID
 ID='Leu'
 FMTDAT='(2E15.6)'
 VOLUME= 1.0
 TRAMP= 1.0
 BRUKER= T
 $END
   3.687117E-06   5.746082E-06
   9.402462E-06  -4.307255E-06
  -3.310805E-07  -9.851733E-06
  -6.634651E-06  -5.514698E-06
  -8.092974E-06   1.679764E-06
  -2.432096E-06   5.887017E-06
   2.019665E-06   4.146003E-06
   3.555960E-06   3.691651E-07
   1.209057E-06  -1.888041E-06
  -3.409127E-07  -1.598037E-06
  -1.394575E-06  -6.173271E-07
  -9.109988E-07   1.833255E-07
  -1.014904E-06   4.287469E-07
  -5.608705E-07   8.075044E-07
  -4.970088E-07   1.103911E-06
   5.272508E-07   1.351959E-06
   1.170529E-06   5.686603E-07
   1.155569E-06  -7.596879E-07
  -6.198328E-07  -1.302704E-06
  -1.724098E-06   9.431960E-08
  -1.295806E-06   2.028365E-06
   9.950429E-07   2.569148E-06
   2.246921E-06   1.086915E-06
   2.025912E-06  -4.164146E-07
   1.004936E-06  -6.332989E-07
   1.312581E-06  -4.533827E-07
   1.330229E-06  -1.333662E-06
   4.448708E-07  -2.204402E-06
  -1.307893E-06  -1.774833E-06
  -1.535647E-06  -5.070292E-08
  -4.216209E-07   8.380240E-07
   8.602413E-07   1.445838E-07
   4.488432E-07  -1.153800E-06
  -7.095705E-07  -1.345736E-06
  -1.629247E-06  -3.788666E-07
  -1.151821E-06   7.928824E-07
  -2.620682E-07   1.125524E-06
   6.712057E-07   6.487793E-07
   5.978537E-07  -2.888569E-07
  -6.729332E-08  -6.960828E-07
  -8.609273E-07  -1.450196E-07
  -3.892399E-07   7.016038E-07
   3.499113E-07   5.452533E-07
   5.563952E-07  -2.653124E-07
  -4.667472E-07  -6.131042E-07
  -9.615563E-07   4.857013E-07
   5.223509E-09   1.454023E-06
   1.525502E-06   7.750994E-07
   1.363992E-06  -8.784145E-07
   3.936153E-09  -1.416955E-06
  -1.044691E-06  -4.012306E-07
  -2.909424E-07   7.258637E-07
   7.560714E-07   2.913071E-07
   7.032151E-07  -8.369346E-07
  -4.851016E-07  -1.117126E-06
  -1.084153E-06  -2.357693E-07
  -7.895021E-07   6.878576E-07
   2.153777E-07   9.161270E-07
   8.048418E-07   3.000339E-07
   8.488050E-07  -5.238514E-07
   9.255710E-08  -1.087630E-06
  -6.819772E-07  -8.265345E-07
  -1.005404E-06  -9.908362E-08
  -5.399193E-07   4.163837E-07
  -2.256512E-07   2.782425E-07
  -3.144914E-07   1.520140E-07
  -5.153160E-07   6.022868E-07
   3.211918E-07   1.094103E-06
   1.239303E-06   3.187265E-07
   9.648502E-07  -1.059132E-06
  -6.472193E-07  -1.394098E-06
  -1.535304E-06   1.552091E-08
  -6.487313E-07   1.394022E-06
   1.020087E-06   1.088968E-06
   1.277788E-06  -5.004083E-07
   7.011989E-08  -1.307087E-06
  -1.098130E-06  -6.039249E-07
  -9.791720E-07   5.323169E-07
  -2.139801E-07   1.021870E-06
   6.352362E-07   7.505899E-07
   8.575898E-07   1.092054E-08
   5.188267E-07  -6.148032E-07
  -2.514184E-07  -6.064414E-07
  -3.982707E-07   2.416637E-08
   8.072522E-08   2.910531E-07
   5.253554E-07  -2.408825E-07
  -7.134664E-08  -9.370871E-07
  -1.116826E-06  -5.951205E-07
  -1.342971E-06   7.750686E-07
  -3.200549E-09   1.589467E-06
   1.205775E-06   7.925186E-07
   1.146555E-06  -5.431462E-07
   1.391382E-08  -9.679417E-07
  -5.575432E-07  -3.066593E-07
  -3.447088E-07   2.609781E-07
   1.295569E-07   2.337012E-07
   1.136773E-07  -4.530142E-09
   1.557648E-07  -1.255750E-08
   1.684295E-07  -1.977384E-07
  -1.251397E-08  -4.172276E-07
  -5.066427E-07  -2.963215E-07
  -5.247951E-07   2.826921E-07
  -8.150451E-08   5.487279E-07
   3.715981E-07   2.885530E-07
   2.530622E-07  -1.005066E-07
   8.793149E-08  -8.739364E-08
   1.029007E-07  -5.766152E-08
   1.489735E-07  -2.372218E-07
  -2.123292E-07  -3.411846E-07
  -3.840258E-07   2.995467E-08
  -1.290813E-07   3.197265E-07
   2.692968E-07   1.254738E-07
   5.699644E-08  -2.882475E-07
  -3.523614E-07  -8.771541E-08
  -2.027997E-07   4.134897E-07
   4.202108E-07   2.918151E-07
   3.542044E-07  -3.347757E-07
  -1.743590E-07  -4.467513E-07
  -5.254267E-07   1.046461E-09
  -1.511534E-07   5.063168E-07
   4.032059E-07   2.934594E-07
   4.094772E-07  -2.668755E-07
  -8.261818E-08  -4.276982E-07
  -3.046252E-07  -1.390620E-07
  -2.728015E-07   8.904343E-08
  -1.272067E-07   2.161743E-07
   2.826582E-08   2.765129E-07
   3.131615E-07   1.756810E-07
   3.566833E-07  -2.142804E-07
  -3.232508E-08  -4.853015E-07
  -4.912444E-07  -1.144121E-07
  -1.699154E-07   3.970495E-07
   3.471267E-07   2.171523E-07
   3.595105E-07  -3.748134E-07
  -3.045094E-07  -5.582450E-07
  -6.616712E-07   3.077587E-08
  -2.728359E-07   5.809552E-07
   3.704564E-07   3.867967E-07
   3.276654E-07  -1.468645E-07
  -5.730663E-10  -2.322649E-07
  -1.295314E-07  -2.023749E-08
   7.393612E-08   1.440289E-08
  -1.697410E-08  -1.884076E-07
  -2.091022E-07  -8.208838E-08
  -1.630562E-07   1.313002E-07
   6.812156E-08   9.391785E-08
  -1.663741E-08  -1.010416E-07
  -1.871387E-07   5.965213E-09
  -8.003758E-08   2.509359E-07
   2.844541E-07   1.254834E-07
   1.840559E-07  -2.895906E-07
  -2.116864E-07  -3.293934E-07
  -4.200845E-07   4.356514E-08
  -7.460287E-08   3.061142E-07
   1.467435E-07   1.341110E-08
  -1.183980E-07  -2.019284E-07
  -3.922197E-07   8.359374E-08
  -1.326676E-07   4.099102E-07
   2.292181E-07   2.793710E-07
   2.162705E-07  -1.413687E-07
  -2.516456E-07  -1.273242E-07
  -2.135743E-07   3.025941E-07
   1.122457E-07   3.547751E-07
   2.962204E-07   1.227611E-07
   1.351271E-07  -5.911900E-08
   8.887211E-08   3.690123E-08
   1.722851E-07  -3.220628E-08
   7.794194E-08  -1.972112E-07
  -1.970658E-07  -1.230815E-07
  -1.795698E-07   2.030975E-07
   1.536740E-07   3.025642E-07
   3.724445E-07  -3.611388E-08
   7.055282E-08  -2.908596E-07
  -1.635573E-07  -9.993791E-08
  -6.686837E-08   1.429024E-07
   2.116461E-07   3.055230E-08
   3.874466E-08  -2.581678E-07
  -2.579335E-07  -1.035212E-07
  -1.944961E-07   2.433930E-07
   1.903541E-07   2.557179E-07
   2.524890E-07  -7.883577E-08
   1.120712E-08  -2.040060E-07
  -1.583370E-07  -6.152735E-09
   3.091532E-08   1.355988E-07
   1.120424E-07  -1.577018E-08
  -7.886930E-09  -7.487322E-08
  -7.320408E-08   9.388928E-08
   1.802988E-07   1.627072E-07
   2.932622E-07  -1.065806E-07
   7.208129E-08  -3.308890E-07
  -2.389586E-07  -1.379083E-07
  -5.033284E-08   1.500091E-07
   1.737769E-07   1.747914E-09
   8.765867E-08  -2.296835E-07
  -1.987227E-07  -1.582991E-07
  -1.024776E-07   1.449847E-07
   1.974567E-07   5.591416E-08
   1.613673E-07  -2.806905E-07
  -2.045874E-07  -3.005043E-07
  -2.736320E-07   6.408858E-09
  -6.431025E-08   1.279595E-07
   8.142824E-08  -5.748192E-08
  -1.432586E-07  -1.796322E-07
  -2.528894E-07   4.802110E-08
  -7.224157E-08   2.072164E-07
   1.458831E-07   5.871014E-08
   1.311773E-08  -1.598173E-07
  -1.818473E-07  -7.729823E-08
  -1.646968E-07   1.307333E-07
   5.864364E-08   1.272790E-07
   2.344485E-08  -5.743388E-08
  -1.156863E-07  -3.171291E-09
  -5.706934E-08   1.597920E-07
   1.671902E-07   8.304867E-08
   8.955112E-08  -1.615090E-07
  -1.515171E-07  -1.395240E-07
  -1.937232E-07   1.397980E-07
   1.417689E-07   1.913353E-07
   1.899567E-07  -1.441297E-07
  -9.965125E-08  -2.564848E-07
  -3.218653E-07   8.479259E-09
  -6.267872E-08   3.075411E-07
   2.780760E-07   8.947491E-08
   1.334256E-07  -2.966561E-07
  -2.635150E-07  -2.129034E-07
  -2.288358E-07   9.752855E-08
  -5.365120E-08   1.173898E-07
  -1.137755E-08   1.279663E-08
  -1.307821E-07   1.235902E-08
  -8.518010E-08   1.658476E-07
   1.005635E-07   1.454378E-07
   1.475093E-07  -9.930629E-08
  -1.579055E-07  -1.778360E-07
  -2.329132E-07   1.251752E-07
   1.061440E-08   2.120542E-07
   1.181353E-07   1.418066E-08
  -7.518062E-08  -8.585425E-08
  -1.637985E-07   1.113779E-07
   2.843562E-08   2.333488E-07
   2.110586E-07   4.720134E-08
   4.335545E-08  -1.755555E-07
  -2.044989E-07  -4.994837E-08
  -1.190235E-07   2.306462E-07
   1.741729E-07   1.655335E-07
   1.399629E-07  -9.572835E-08
  -8.876010E-08  -1.168178E-07
  -1.404683E-07   1.169534E-07
   9.272262E-08   1.490422E-07
   1.176120E-07  -3.941896E-08
  -3.779650E-08  -1.191749E-07
  -1.769208E-07   6.983631E-08
   5.385100E-08   2.046459E-07
   1.605273E-07   4.518154E-09
   2.796731E-08  -1.202143E-07
  -1.325675E-07  -6.727234E-09
   1.979604E-09   1.391939E-07
   1.054603E-07   8.544576E-09
   6.324857E-10  -9.937011E-08
  -1.620079E-07   5.208880E-10
  -6.639634E-08   2.171415E-07
   1.927552E-07   1.672829E-07
   1.953960E-07  -1.343071E-07
  -1.182211E-07  -1.394541E-07
  -1.077402E-07   1.349191E-07
   1.295172E-07   1.568332E-07
   2.101250E-07  -9.208706E-08
  -4.904155E-08  -1.907425E-07
  -1.372494E-07   1.960637E-08
   1.800676E-08   1.305699E-07
   1.782150E-07  -4.301466E-08
  -4.724506E-08  -2.242291E-07
  -2.241505E-07  -1.418516E-08
  -9.425580E-08   1.736651E-07
   1.044962E-07   9.815336E-08
   3.034722E-08  -7.130712E-08
  -9.989934E-08  -5.903022E-10
  -5.810161E-08   1.429945E-07
   1.376973E-07   1.224399E-07
   1.208863E-07  -1.006705E-07
  -9.883483E-08  -9.492642E-08
  -1.109462E-07   1.318258E-07
   1.300031E-07   1.504089E-07
   1.591733E-07  -7.704828E-08
  -3.969444E-08  -1.420388E-07
  -1.384546E-07   5.125420E-08
   6.052219E-08   1.497955E-07
   1.539374E-07  -3.390543E-08
  -1.408965E-08  -1.594096E-07
  -1.875636E-07   2.482923E-08
   7.851174E-09   2.197767E-07
   2.112972E-07   7.515520E-08
   1.548750E-07  -1.530806E-07
  -8.629416E-08  -1.508430E-07
  -9.547147E-08   5.298040E-08
   5.303038E-08   7.493440E-08
   9.301369E-08  -5.818907E-08
  -5.822391E-08  -8.778440E-08
  -5.539359E-08   7.275171E-08
   1.065835E-07   5.838618E-08
   1.131788E-07  -1.201165E-07
  -8.309104E-08  -1.594057E-07
  -1.595067E-07   3.779310E-08
   4.563969E-08   1.534630E-07
   1.821709E-07  -7.781742E-08
  -4.355510E-08  -2.156628E-07
  -2.013114E-07  -5.909097E-08
  -1.196566E-07   1.457531E-07
   1.034299E-07   8.164937E-08
   3.013204E-08  -1.021067E-07
  -1.197494E-07  -5.050482E-08
  -9.977706E-08   1.287388E-07
   1.268058E-07   1.027972E-07
   8.514982E-08  -1.191655E-07
  -1.003283E-07  -1.074766E-07
  -1.432200E-07   6.893054E-08
   4.065252E-08   1.328781E-07
   9.971165E-08  -2.849277E-08
  -2.342724E-08  -1.014380E-07
