 $SEQPAR
 ECHOT = 32.
 HZPPM= 399.7182
 SEQ = 'sLASER'
 $END
 $NMID
 ID='Leu'
 FMTDAT='(2E15.6)'
 VOLUME= 1.0
 TRAMP= 1.0
 BRUKER= T
 $END
   2.993686E-06   4.063825E-06
   6.989133E-06  -3.479782E-06
  -2.696740E-07  -7.456435E-06
  -4.917796E-06  -4.192011E-06
  -5.828031E-06   1.163720E-06
  -1.528871E-06   3.945821E-06
   1.395835E-06   2.362373E-06
   2.056449E-06  -2.516282E-07
   1.819545E-07  -1.456213E-06
  -7.262286E-07  -8.643481E-07
  -1.077720E-06  -9.073954E-08
  -4.566312E-07   1.518321E-07
  -7.642749E-07  -7.901154E-08
  -9.497864E-07   2.729073E-07
  -1.041221E-06   1.021698E-06
   9.226561E-08   1.518410E-06
   9.065405E-07   8.103817E-07
   9.603093E-07  -4.067764E-07
  -4.941017E-07  -9.515040E-07
  -1.480005E-06   2.140134E-07
  -1.026385E-06   1.847283E-06
   8.782634E-07   2.171895E-06
   1.816511E-06   9.370819E-07
   1.628644E-06  -2.113465E-07
   8.746120E-07  -4.054502E-07
   1.101016E-06  -2.859219E-07
   1.158448E-06  -9.887037E-07
   4.595187E-07  -1.755218E-06
  -9.900407E-07  -1.459661E-06
  -1.245409E-06  -5.275562E-08
  -3.200061E-07   7.191664E-07
   7.453964E-07   1.163746E-07
   3.606658E-07  -9.571870E-07
  -5.993420E-07  -1.062196E-06
  -1.334441E-06  -2.583142E-07
  -9.028891E-07   7.770753E-07
   1.316357E-08   9.587671E-07
   6.846834E-07   3.133777E-07
   3.606634E-07  -4.475462E-07
  -2.887517E-07  -5.599266E-07
  -8.296757E-07   4.510142E-08
  -3.122288E-07   8.048980E-07
   5.130856E-07   5.865743E-07
   6.163298E-07  -3.310188E-07
  -3.905758E-07  -5.574628E-07
  -7.347784E-07   3.986177E-07
   4.598180E-08   1.136486E-06
   1.277960E-06   6.069557E-07
   1.161436E-06  -7.992763E-07
  -2.747623E-08  -1.241272E-06
  -8.817332E-07  -3.885927E-07
  -3.215518E-07   5.311286E-07
   5.263334E-07   2.588832E-07
   5.371409E-07  -6.478518E-07
  -4.402716E-07  -8.939845E-07
  -9.305161E-07  -1.123082E-07
  -5.845710E-07   6.502898E-07
   2.867750E-07   7.404787E-07
   7.240937E-07   1.088860E-07
   5.667574E-07  -5.880000E-07
  -1.557543E-07  -8.658095E-07
  -7.004192E-07  -4.616560E-07
  -7.288933E-07   1.781430E-07
  -1.780228E-07   4.024153E-07
  -1.713240E-08   3.609423E-08
  -3.489080E-07  -7.055077E-08
  -5.770919E-07   4.695966E-07
   1.398627E-07   9.605475E-07
   9.763606E-07   4.091644E-07
   8.840193E-07  -7.730684E-07
  -4.416558E-07  -1.173304E-06
  -1.255252E-06  -6.325475E-08
  -6.149511E-07   1.079435E-06
   6.602962E-07   9.377489E-07
   9.672875E-07  -1.706031E-07
   2.081004E-07  -8.817431E-07
  -7.491193E-07  -4.776365E-07
  -7.188055E-07   4.267575E-07
  -1.171022E-07   8.332294E-07
   6.016583E-07   6.133259E-07
   7.493635E-07  -5.886112E-08
   4.009877E-07  -5.089748E-07
  -1.756113E-07  -4.550537E-07
  -2.541486E-07   4.248461E-08
   1.408518E-07   2.108550E-07
   4.708753E-07  -2.260052E-07
  -3.565356E-08  -7.874074E-07
  -8.664823E-07  -4.319332E-07
  -9.208857E-07   6.273714E-07
   1.424128E-07   1.163930E-06
   1.055073E-06   4.412049E-07
   8.709242E-07  -6.444985E-07
  -1.198314E-07  -9.103593E-07
  -6.111119E-07  -2.388961E-07
  -2.845778E-07   2.983366E-07
   1.708229E-07   1.905232E-07
   2.123372E-07  -7.784373E-08
   1.643022E-07  -2.755787E-07
  -7.780469E-08  -4.025986E-07
  -3.244678E-07  -3.635383E-07
  -6.073541E-07  -7.251151E-08
  -4.325167E-07   3.809974E-07
  -3.547289E-08   4.762823E-07
   2.804695E-07   2.259871E-07
   1.617735E-07  -7.490096E-08
   4.526733E-08  -5.765971E-08
   3.921418E-08  -9.620990E-08
  -4.981181E-08  -1.971595E-07
  -3.123648E-07  -1.277473E-07
  -3.417702E-07   2.159469E-07
  -1.240103E-08   4.302182E-07
   3.626471E-07   1.340186E-07
   1.081301E-07  -2.672948E-07
  -2.483347E-07  -1.006324E-07
  -1.785879E-07   2.745995E-07
   2.719210E-07   2.496446E-07
   2.850480E-07  -2.273977E-07
  -1.544632E-07  -3.563154E-07
  -4.414003E-07   3.992313E-08
  -1.064009E-07   4.192749E-07
   2.846017E-07   2.144456E-07
   2.401129E-07  -1.674856E-07
  -1.081631E-07  -2.334492E-07
  -2.406376E-07   5.326686E-09
  -1.617078E-07   1.955541E-07
   1.918540E-08   2.424149E-07
   1.284335E-07   2.083152E-07
   3.061822E-07   8.523412E-08
   2.397576E-07  -2.238658E-07
  -8.571120E-08  -3.019694E-07
  -3.289924E-07  -1.089237E-08
  -1.041060E-07   3.360676E-07
   2.987212E-07   2.320779E-07
   3.340104E-07  -2.333680E-07
  -1.800446E-07  -3.683432E-07
  -3.986610E-07   1.205937E-07
  -4.050162E-09   4.546127E-07
   4.282059E-07   1.794616E-07
   2.872580E-07  -2.468000E-07
  -4.764261E-08  -2.402322E-07
  -1.119573E-07   1.096859E-08
   8.794856E-08   5.609715E-08
   9.984621E-08  -8.247000E-08
   3.195668E-08  -1.131919E-07
  -1.792682E-08  -8.240105E-08
   9.096877E-09  -8.545441E-08
  -8.390339E-08  -1.137871E-07
  -1.377573E-07   3.160121E-08
   2.613031E-08   1.713155E-07
   2.829535E-07  -2.585935E-09
   1.552695E-07  -3.387800E-07
  -1.945963E-07  -3.526724E-07
  -3.636206E-07  -4.445710E-08
  -1.400291E-07   1.808129E-07
   5.427745E-08   4.583615E-08
  -5.407242E-08  -1.248916E-07
  -2.400508E-07   2.341476E-08
  -6.729340E-08   2.286004E-07
   1.537880E-07   9.354527E-08
   6.035621E-08  -1.570379E-07
  -2.159476E-07  -6.282569E-08
  -1.373221E-07   2.126540E-07
   1.282127E-07   2.218253E-07
   2.368483E-07  -3.202243E-08
   3.469210E-08  -1.643927E-07
  -5.861011E-08  -5.641192E-08
  -9.967385E-09  -4.350266E-09
   3.910806E-09  -7.588508E-08
  -1.149547E-07  -4.573902E-08
  -7.949541E-08   8.930541E-08
   7.873732E-08   1.143387E-07
   1.687876E-07  -1.059459E-07
  -8.416934E-08  -2.064231E-07
  -1.786534E-07  -9.093369E-09
  -5.920980E-08   1.206419E-07
   1.254746E-07   1.368963E-08
  -1.912363E-09  -2.064951E-07
  -2.608644E-07  -1.083484E-07
  -2.349783E-07   2.075693E-07
   9.710863E-08   2.391860E-07
   1.717455E-07  -3.124186E-08
  -2.489924E-08  -1.575249E-07
  -1.772614E-07   1.486689E-08
  -2.361331E-08   1.346735E-07
   5.175999E-08   4.273271E-08
   5.779788E-09  -2.888589E-08
  -7.299637E-08   5.387186E-08
   7.781435E-08   1.134663E-07
   1.340745E-07  -5.325634E-08
  -1.763008E-08  -1.600633E-07
  -1.719096E-07   6.020798E-09
   8.147038E-09   1.484274E-07
   1.312466E-07   1.744231E-08
   8.207153E-08  -1.436285E-07
  -1.293284E-07  -1.339553E-07
  -1.187999E-07   7.360012E-08
   7.369690E-08   6.887653E-08
   7.571805E-08  -1.666677E-07
  -2.135531E-07  -1.548401E-07
  -2.061793E-07   1.097478E-07
  -1.347991E-08   1.601184E-07
   9.560699E-08  -1.621438E-08
  -1.248315E-07  -1.271861E-07
  -2.226823E-07   1.134314E-07
  -1.362076E-08   2.463747E-07
   1.676653E-07   7.495957E-08
   2.475675E-08  -1.011289E-07
  -1.185948E-07  -1.687412E-09
  -6.528241E-08   1.462463E-07
   1.054381E-07   1.066888E-07
   5.955689E-08  -4.637353E-08
  -5.470116E-08  -7.322445E-09
  -2.382398E-08   1.058476E-07
   1.141258E-07   6.452127E-08
   7.468379E-08  -7.758707E-08
  -7.137962E-08  -7.708195E-08
  -1.013561E-07   1.179859E-07
   1.561126E-07   1.326617E-07
   1.655149E-07  -1.381450E-07
  -8.499850E-08  -2.139189E-07
  -2.514204E-07   3.596223E-08
  -1.264921E-09   2.354247E-07
   1.921614E-07   4.214905E-08
   1.014798E-07  -1.756496E-07
  -1.540768E-07  -1.723193E-07
  -2.063696E-07   6.012635E-08
  -5.292560E-08   1.480674E-07
   2.327994E-08   4.980551E-08
  -7.497304E-08   5.302601E-08
   1.201823E-08   1.688918E-07
   1.424472E-07   7.519298E-08
   1.073202E-07  -7.968198E-08
  -7.448477E-08  -1.011850E-07
  -1.350738E-07   9.042563E-08
   6.196961E-08   1.918867E-07
   1.850242E-07  -2.143729E-08
  -2.795342E-08  -1.227238E-07
  -1.084566E-07   5.104962E-08
   2.332762E-08   1.642051E-07
   1.901568E-07   4.273390E-08
   7.924730E-08  -1.389748E-07
  -9.766766E-08  -7.308456E-08
  -7.421276E-08   1.317488E-07
   1.694639E-07   1.071746E-07
   1.383496E-07  -1.294761E-07
  -6.173730E-08  -1.348842E-07
  -1.109994E-07   5.585134E-08
   8.766199E-08   1.017826E-07
   1.149289E-07  -7.232075E-08
  -1.713606E-08  -1.256606E-07
  -1.156816E-07   3.759555E-09
   4.467911E-08   1.023097E-07
   1.146473E-07  -6.761088E-08
  -3.704634E-08  -1.470777E-07
  -1.622201E-07  -4.347868E-09
  -2.007102E-08   1.440348E-07
   1.184109E-07   2.255589E-08
   2.345031E-08  -1.121237E-07
  -1.233094E-07  -1.654310E-08
  -2.127396E-08   1.410130E-07
   1.555530E-07   7.080623E-08
   1.399345E-07  -1.427788E-07
  -8.843611E-08  -1.553596E-07
  -1.040677E-07   3.671383E-08
   4.908679E-08   6.546428E-08
   9.816591E-08  -9.909493E-08
  -9.001625E-08  -1.537347E-07
  -1.542523E-07   7.809116E-09
  -4.019497E-08   1.100759E-07
   9.506953E-08  -6.315548E-09
  -5.638577E-08  -1.264975E-07
  -1.409844E-07   1.565686E-08
  -5.788529E-08   9.931305E-08
   5.284256E-08   5.752407E-08
   8.856502E-09  -6.804117E-08
  -1.243270E-07  -1.537611E-08
  -7.568914E-08   1.407889E-07
   9.234362E-08   9.652276E-08
   6.307811E-08  -4.102868E-08
  -3.918849E-08  -5.550413E-08
  -9.633952E-08   5.831593E-08
   5.056751E-08   1.158776E-07
   8.976922E-08  -3.163156E-08
  -4.242200E-08  -8.747074E-08
  -1.438692E-07   6.092657E-08
   2.992160E-08   1.888577E-07
   1.590437E-07   3.547365E-08
   5.178098E-08  -9.738088E-08
  -8.334225E-08   4.450296E-09
   5.127161E-08   1.225083E-07
   1.585298E-07  -1.967413E-08
   5.303068E-08  -1.544591E-07
  -1.186313E-07  -9.570075E-08
  -1.057366E-07   7.668465E-08
   5.029577E-08   1.182442E-07
   1.261603E-07  -4.764885E-08
  -5.745177E-08  -1.048052E-07
  -8.042755E-08   6.276984E-08
   6.090888E-08   9.655810E-08
   1.315352E-07  -5.608791E-08
  -4.537384E-08  -1.260848E-07
  -8.590889E-08   3.253178E-08
   3.482341E-08   8.077657E-08
   1.336562E-07  -4.836301E-08
  -3.469728E-08  -1.814466E-07
  -1.688944E-07  -2.046022E-08
  -6.636288E-08   1.235649E-07
   1.056454E-07   5.473100E-08
   1.999384E-08  -1.258184E-07
  -1.470113E-07  -3.255394E-08
  -9.220287E-08   1.402467E-07
   1.090608E-07   1.331566E-07
   1.247829E-07  -7.452631E-08
  -5.707564E-08  -1.014932E-07
  -9.344085E-08   6.256349E-08
   7.428434E-08   9.005943E-08
   7.958912E-08  -6.918959E-08
  -4.758029E-08  -7.045043E-08
