 $SEQPAR
 ECHOT = 40.
 HZPPM= 399.7182
 SEQ = 'sLASER'
 $END
 $NMID
 ID='Leu'
 FMTDAT='(2E15.6)'
 VOLUME= 1.0
 TRAMP= 1.0
 BRUKER= T
 $END
   1.603409E-06   2.280476E-06
   4.122701E-06  -2.009523E-06
  -3.061625E-07  -4.549086E-06
  -3.177686E-06  -2.311693E-06
  -3.508044E-06   1.021566E-06
  -6.388447E-07   2.670719E-06
   1.265355E-06   1.342989E-06
   1.404127E-06  -5.238308E-07
  -1.750004E-07  -1.195837E-06
  -8.197176E-07  -3.071707E-07
  -5.726869E-07   3.708757E-07
   1.436662E-07   2.367139E-07
  -1.365382E-07  -3.289115E-07
  -6.365586E-07  -1.859821E-07
  -9.058463E-07   5.326930E-07
  -7.881725E-08   1.136370E-06
   7.204158E-07   6.910537E-07
   8.783518E-07  -2.916893E-07
  -1.516831E-07  -8.437971E-07
  -9.453170E-07  -1.189844E-07
  -7.776481E-07   9.482783E-07
   3.436635E-07   1.284112E-06
   9.577749E-07   6.170055E-07
   9.129524E-07   5.522748E-09
   5.986697E-07  -1.042464E-07
   8.754284E-07  -1.400768E-07
   8.998652E-07  -8.138508E-07
   2.385717E-07  -1.414237E-06
  -9.275338E-07  -1.134447E-06
  -1.166744E-06   6.065502E-08
  -3.665382E-07   7.662572E-07
   5.985844E-07   3.479363E-07
   4.560959E-07  -6.176765E-07
  -3.683865E-07  -8.424058E-07
  -1.029327E-06  -1.947605E-07
  -6.589796E-07   7.111815E-07
   2.074771E-07   7.673742E-07
   6.778770E-07   8.990905E-08
   2.637398E-07  -6.011253E-07
  -4.872291E-07  -5.507083E-07
  -8.230947E-07   1.920889E-07
  -2.207850E-07   7.791554E-07
   4.569135E-07   5.081385E-07
   5.461993E-07  -1.929062E-07
  -1.435262E-07  -4.863697E-07
  -5.566209E-07   1.317137E-07
  -5.214201E-08   7.510947E-07
   8.120022E-07   4.007887E-07
   7.329997E-07  -5.548590E-07
  -1.212046E-07  -8.577188E-07
  -7.255951E-07  -1.907493E-07
  -2.896181E-07   4.909001E-07
   3.534704E-07   3.457633E-07
   4.935136E-07  -3.017071E-07
  -1.422220E-07  -6.402617E-07
  -6.278806E-07  -1.777626E-07
  -4.648340E-07   4.432303E-07
   1.706297E-07   5.651019E-07
   5.361424E-07   1.499267E-07
   4.799084E-07  -4.296031E-07
  -1.564234E-07  -6.700493E-07
  -5.637494E-07  -2.546218E-07
  -5.079970E-07   2.278552E-07
  -5.559389E-08   3.999928E-07
   1.487043E-07   8.742082E-08
  -4.279095E-08  -1.094547E-07
  -3.002995E-07   1.025418E-07
  -1.034074E-08   4.652833E-07
   4.818945E-07   2.176461E-07
   4.200886E-07  -4.208661E-07
  -2.864609E-07  -5.859927E-07
  -6.822149E-07   3.344817E-09
  -3.497084E-07   6.367399E-07
   4.313551E-07   5.645067E-07
   5.876521E-07  -1.581799E-07
   8.464654E-08  -5.527417E-07
  -5.046935E-07  -2.963470E-07
  -4.942223E-07   3.217231E-07
  -2.460493E-08   5.886262E-07
   4.621058E-07   3.370699E-07
   4.266502E-07  -1.678694E-07
   8.068320E-08  -3.393600E-07
  -2.524719E-07  -1.614867E-07
  -1.793128E-07   2.435631E-07
   2.448448E-07   2.890658E-07
   4.764993E-07  -1.552813E-07
   6.893402E-08  -5.961800E-07
  -5.541595E-07  -3.842249E-07
  -6.662217E-07   3.605805E-07
   6.149864E-08   7.778333E-07
   6.700671E-07   2.696054E-07
   5.045398E-07  -4.131189E-07
  -1.322442E-07  -5.442504E-07
  -4.370290E-07  -7.562428E-08
  -1.892621E-07   3.196385E-07
   2.326194E-07   2.563533E-07
   3.154972E-07  -8.986063E-08
   1.431075E-07  -3.126925E-07
  -1.535465E-07  -3.367176E-07
  -3.263151E-07  -1.298867E-07
  -3.411583E-07   1.034861E-07
  -1.728204E-07   3.173526E-07
   1.127398E-07   3.266434E-07
   2.946216E-07   8.031859E-08
   1.423715E-07  -1.427970E-07
   1.171541E-09  -9.191397E-08
   2.206858E-09  -4.577772E-08
   2.945974E-09  -8.202141E-08
  -1.025753E-07  -7.355921E-08
  -1.153596E-07   5.586639E-08
  -1.032081E-08   1.280674E-07
   1.180170E-07   4.213465E-08
   3.162244E-08  -8.222991E-08
  -5.218048E-08   1.429212E-09
   3.077016E-08   9.066207E-08
   1.982643E-07  -4.405699E-09
   1.203967E-07  -2.686327E-07
  -2.000475E-07  -2.828090E-07
  -3.458179E-07   2.915040E-08
  -1.115028E-07   2.725578E-07
   1.803180E-07   1.608766E-07
   1.817330E-07  -1.510190E-07
  -1.006783E-07  -2.310475E-07
  -2.556931E-07  -5.791503E-08
  -2.302930E-07   1.722927E-07
   6.010713E-10   2.600692E-07
   1.559184E-07   1.560391E-07
   2.410123E-07  -4.375747E-08
   5.115180E-08  -2.756845E-07
  -2.626033E-07  -1.999107E-07
  -3.693069E-07   1.530213E-07
  -4.713826E-08   4.107558E-07
   2.832221E-07   2.223219E-07
   2.750894E-07  -1.300994E-07
  -7.181550E-08  -2.538373E-07
  -2.637475E-07   5.042885E-08
  -3.809441E-08   2.915746E-07
   2.348492E-07   1.593413E-07
   1.945990E-07  -9.603996E-08
  -1.161411E-08  -1.271879E-07
  -6.794165E-08   4.548605E-08
   8.052529E-08   9.386368E-08
   1.425666E-07  -2.875304E-09
   1.069999E-07  -1.070299E-07
   6.915258E-09  -9.001771E-08
   4.510006E-08  -8.026375E-08
  -4.246749E-08  -1.319424E-07
  -9.115247E-08  -3.281564E-08
  -4.437643E-08   2.647088E-08
   4.286577E-08   2.083039E-08
   6.469161E-08  -9.034073E-08
  -6.518918E-08  -1.612219E-07
  -1.735221E-07  -1.533681E-08
  -3.894670E-08   6.112031E-08
  -2.703043E-08  -3.147152E-08
  -1.048757E-07  -4.087107E-08
  -1.860265E-07   8.898842E-08
   3.640750E-09   2.409514E-07
   1.864544E-07   6.438110E-08
   8.054486E-08  -1.399914E-07
  -1.520239E-07  -9.297021E-08
  -1.487372E-07   1.474119E-07
   6.753501E-08   2.156529E-07
   2.113433E-07   4.080617E-08
   9.959578E-08  -1.044287E-07
   3.583296E-08  -8.442670E-08
  -1.822080E-08  -1.034763E-07
  -5.966107E-08  -5.828019E-08
  -9.804507E-08  -4.125328E-08
  -1.222326E-07   7.959777E-08
   3.331521E-08   1.574078E-07
   1.684295E-07   5.418516E-11
   2.322962E-08  -1.698411E-07
  -1.480251E-07  -5.363584E-08
  -6.870994E-08   9.900196E-08
   5.963432E-08   4.046982E-08
   4.107729E-09  -7.154791E-08
  -1.190948E-07  -2.152474E-08
  -8.287625E-08   1.381341E-07
   1.003092E-07   1.141193E-07
   8.718272E-08  -5.518213E-08
  -5.829757E-08  -5.645514E-08
  -6.940656E-08   8.618354E-08
   7.216405E-08   9.912556E-08
   9.468166E-08  -1.316118E-08
   2.131362E-08  -5.807334E-08
  -3.704793E-08   3.979950E-09
   3.686331E-08   5.871515E-08
   9.687606E-08  -2.206975E-08
   1.624545E-08  -1.072100E-07
  -8.340368E-08  -2.488362E-08
  -1.347316E-08   6.298219E-08
   6.908607E-08   3.295979E-08
   8.044731E-08  -7.032430E-08
  -3.425978E-08  -9.244727E-08
  -4.250800E-08   1.416012E-09
   4.165956E-08  -8.122315E-09
   1.430329E-08  -1.336135E-07
  -1.660124E-07  -9.954245E-08
  -1.629864E-07   9.122480E-08
   1.647155E-09   1.448655E-07
   7.727486E-08   1.625198E-09
  -4.923825E-08  -4.233436E-08
  -7.165676E-08   5.125857E-08
  -1.187077E-08   1.101048E-07
   9.559360E-08   5.932353E-08
   4.137368E-08  -5.137044E-08
  -5.289834E-08   1.643427E-10
   5.235901E-09   1.064188E-07
   1.258804E-07   2.758019E-08
   5.371452E-08  -6.195786E-08
   8.742795E-09  -4.235290E-08
  -1.214398E-08   1.301310E-08
   9.864347E-08   1.218565E-08
   5.922234E-08  -1.284402E-07
  -6.597431E-08  -1.023791E-07
  -8.581962E-08   5.235515E-09
   2.432030E-08   3.958566E-08
   4.709869E-08  -7.594601E-08
  -7.285906E-08  -1.149882E-07
  -1.543747E-07   1.830486E-08
  -1.882056E-08   1.204183E-07
   8.172049E-08   2.313469E-08
   4.624669E-08  -9.601265E-08
  -1.055676E-07  -1.019574E-07
  -1.234467E-07   4.127376E-08
  -4.090248E-08   5.932287E-08
  -3.652931E-08   3.348062E-08
  -5.503649E-08   6.119888E-08
  -9.812767E-09   1.136323E-07
   9.049305E-08   9.836350E-08
   1.257031E-07  -4.123236E-08
  -2.037073E-08  -9.460423E-08
  -5.599952E-08   1.866793E-08
   1.891957E-08   3.617275E-08
   3.139845E-08  -3.122684E-08
  -5.034825E-08  -4.558483E-08
  -8.407888E-08   4.410648E-08
   9.586447E-09   1.184785E-07
   1.085212E-07   1.086772E-08
  -6.672519E-09  -6.706576E-08
  -5.593972E-08   2.917122E-08
   1.352994E-08   9.767453E-08
   1.355888E-07   3.800477E-08
   8.651518E-08  -1.129340E-07
  -5.370977E-08  -1.001497E-07
  -7.908631E-08   2.268836E-08
   3.334127E-08   5.020203E-08
   4.039159E-08  -4.586364E-08
  -4.107637E-08  -5.029408E-08
  -6.207538E-08   4.015593E-08
   4.887022E-08   7.138659E-08
   8.598260E-08  -3.621274E-08
   1.042975E-08  -9.130089E-08
  -5.995894E-08  -4.879758E-08
  -3.163063E-08   9.710892E-09
   1.631820E-09  -2.718093E-08
  -6.419571E-08  -5.226981E-08
  -9.804099E-08   3.773726E-08
  -3.058307E-08   8.529832E-08
   4.646624E-08   8.367156E-08
   8.663574E-08  -3.953249E-08
  -5.907909E-08  -5.565287E-08
  -3.456065E-08   6.424662E-08
   5.462334E-08   4.631039E-08
   7.266918E-08  -5.525723E-08
  -5.760539E-08  -8.377517E-08
  -7.679423E-08   3.901398E-08
   1.569887E-08   7.325019E-08
   8.471299E-08  -1.428519E-08
  -1.444765E-08  -9.761891E-08
  -9.373059E-08  -1.562383E-08
  -4.845503E-08   7.406343E-08
   5.790936E-08   3.303027E-08
  -1.200100E-08  -6.134525E-08
  -7.703714E-08   1.582021E-08
  -3.379892E-08   7.850660E-08
   5.383572E-08   6.964262E-08
   4.836842E-08  -3.064616E-08
  -4.525534E-08  -1.038364E-08
  -1.181456E-08   8.485538E-08
   9.353207E-08   4.791426E-08
   7.618782E-08  -5.107926E-08
  -7.444804E-09  -8.085371E-08
  -8.012742E-08   7.665670E-09
   2.154006E-08   8.599557E-08
   8.728755E-08   1.519706E-09
   3.934195E-08  -7.565515E-08
  -6.977335E-08  -2.986047E-08
   1.468547E-08   9.390035E-08
   1.302487E-07  -1.034781E-08
   6.459866E-08  -1.211484E-07
  -4.653508E-08  -1.199736E-07
  -8.209984E-08  -2.536744E-08
  -1.464533E-08   4.773038E-09
  -1.064807E-08  -5.580996E-08
  -8.714629E-08  -4.153233E-08
  -8.075835E-08   4.660204E-08
   5.782516E-09   6.644630E-08
   3.902855E-08  -1.849266E-08
  -4.417236E-08  -3.935315E-08
  -5.668075E-08   3.348319E-08
   9.966809E-09   6.944763E-08
   8.036661E-08  -8.836002E-09
  -5.429664E-09  -9.037442E-08
  -8.372692E-08  -2.718780E-08
  -5.056171E-08   6.146744E-08
   5.113727E-08   2.479993E-08
  -1.206661E-08  -6.205642E-08
  -6.804227E-08   4.373409E-09
  -2.881978E-08   5.646456E-08
   5.461823E-08   3.937066E-08
   4.232811E-08  -7.777981E-08
  -9.019759E-08  -7.739776E-08
  -1.171617E-07   5.796494E-08
   8.415701E-09   1.049550E-07
   5.616654E-08   1.044362E-08
   4.304162E-09  -3.194021E-08
